#.DATE. 2018-06-23 12:40:03                                                  .
#.GTkV. 25                                                                   .
#.GCmA. 30                                                                   .
#.WLa1. 2.2907                                                              .
#.ANFG. 138                                                                  .
#.ENDE. 162                                                                  .
#.STEP. 0.02                                                                 .
#.t/St. 1                                                                 .
#.nScn. 2                                                             .
#.MaxI. 2854                                                .
#.    .                                                                      .
#.iScn. 1                                                .
#.STPi. 0.02                                                .
#.PSIi. 0                                                .
#.FETA. -1                                                                   .
138.000    157    117    164    230    221    188    188    201    209    208
138.200    172    136    167    215    214    200    211    231    239    236
138.400    195    151    167    202    215    214    188    160    167    195
138.600    250    304    301    269    205    152    213    296    269    208
138.800    202    221    257    282    222    144    146    176    189    193
139.000    184    173    182    189    154    111    112    128    137    149
139.200    193    236    216    174    155    153    188    223    184    138
139.400    202    291    285    245    222    214    248    280    222    152
139.600    202    278    244    179    184    215    243    258    219    170
139.800    173    196    217    238    264    284    263    227    206    194
140.000    202    211    183    145    129    124    137    161    200    238
140.200    238    226    237    244    185    123    184    271    241    172
140.400    135    117    127    150    175    198    211    220    232    239
140.600    209    180    221    282    296    284    232    181    210    263
140.800    268    257    261    267    254    236    223    208    168    127
141.000    128    154    220    280    233    157    153    176    192    199
141.200    168    129    128    144    167    186    175    155    155    163
141.400    169    186    255    320    263    173    165    189    213    233
141.600    233    223    203    181    167    161    173    202    275    331
141.800    222     90    176    321    319    260    203    164    210    273
142.000    254    209    199    208    239    281    336    375    306    211
142.200    199    220    238    243    191    135    169    233    264    275
142.400    254    231    263    313    341    356    341    320    324    327
142.600    273    212    225    257    239    201    166    143    173    217
142.800    216    199    189    188    224    272    310    329    273    203
143.000    218    263    295    317    322    317    294    263    227    194
143.200    187    196    230    270    289    291    254    213    224    250
143.400    249    236    213    189    177    177    220    271    276    265
143.600    270    277    256    231    243    270    303    335    342    330
143.800    265    192    185    200    187    176    232    300    301    273
144.000    235    206    244    293    265    219    235    263    231    191
144.200    231    287    261    217    240    281    278    258    233    216
144.400    242    277    266    244    262    292    302    302    292    281
144.600    285    287    249    199    172    162    192    247    344    428
144.800    363    257    236    258    320    383    369    330    311    300
145.000    284    266    248    235    247    265    261    253    262    277
145.200    285    293    311    323    287    236    210    199    216    241
145.400    251    250    219    191    235    302    344    359    291    202
145.600    181    191    218    241    214    175    181    211    273    331
145.800    309    264    269    289    287    283    306    325    270    202
146.000    209    235    198    151    180    236    272    278    169     52
146.200    122    245    265    247    252    260    238    205    177    161
146.400    192    242    295    339    330    300    271    255    294    348
146.600    362    352    304    251    251    272    288    300    304    317
146.800    393    467    399    291    262    270    313    360    362    336
147.000    260    188    239    321    312    275    284    317    372    416
147.200    363    287    286    305    271    231    271    326    296    242
147.400    238    263    331    399    374    322    320    333    326    319
147.600    357    394    336    255    251    276    296    310    307    303
147.800    331    361    339    304    306    323    345    368    386    399
148.000    400    399    413    425    397    356    327    311    335    364
148.200    341    303    295    290    240    197    278    387    396    369
148.400    367    376    393    413    430    441    427    403    379    354
148.600    326    298    280    273    301    343    385    413    374    321
148.800    335    369    375    372    387    415    475    527    479    402
149.000    383    389    402    420    446    469    459    437    428    427
149.200    440    464    523    567    474    351    348    387    389    385
149.400    421    460    431    388    412    451    440    421    465    521
149.600    504    463    448    449    472    492    452    402    424    457
149.800    405    331    322    354    469    586    545    467    517    590
150.000    518    411    419    469    499    515    499    474    459    449
150.200    441    439    470    512    539    552    517    469    456    451
150.400    421    396    444    509    506    479    468    464    459    457
150.600    476    489    422    355    440    557    532    467    484    522
150.800    501    473    525    593    578    540    550    575    577    566
151.000    542    521    545    576    557    538    627    736    727    680
151.200    676    686    678    653    586    533    634    766    749    686
151.400    687    704    681    645    627    623    646    676    687    699
151.600    748    806    832    849    879    898    832    746    725    746
151.800    840    938    906    831    800    795    835    888    921    944
152.000    962    983   1032   1077   1044    992    998   1013    955    886
152.200    915    976   1001   1004    975    948    994   1062   1089   1103
152.400   1140   1184   1216   1250   1309   1359   1311   1237   1235   1270
152.600   1351   1431   1410   1361   1378   1416   1424   1431   1490   1567
152.800   1632   1680   1663   1621   1581   1559   1627   1721   1765   1795
153.000   1853   1898   1815   1706   1727   1803   1899   1988   2005   1997
153.200   2008   2019   1996   1963   1942   1938   1997   2093   2249   2386
153.400   2305   2170   2202   2286   2303   2307   2383   2491   2622   2718
153.600   2589   2397   2332   2338   2444   2564   2559   2512   2510   2534
153.800   2600   2670   2683   2666   2611   2574   2703   2854   2777   2636
154.000   2632   2668   2635   2586   2592   2614   2603   2584   2593   2620
154.200   2682   2744   2733   2691   2642   2604   2633   2673   2635   2570
154.400   2530   2497   2454   2428   2510   2630   2718   2759   2625   2443
154.600   2368   2337   2311   2294   2315   2329   2230   2112   2122   2183
154.800   2239   2269   2176   2060   2079   2160   2288   2396   2315   2187
155.000   2196   2241   2189   2106   2058   2029   2027   2029   2001   1957
155.200   1893   1823   1763   1720   1745   1787   1779   1758   1767   1773
155.400   1701   1611   1589   1598   1619   1633   1590   1540   1567   1611
155.600   1590   1537   1459   1402   1503   1628   1558   1428   1388   1394
155.800   1449   1496   1413   1285   1199   1144   1169   1211   1183   1141
156.000   1167   1208   1182   1141   1152   1166   1092   1003   1019   1070
156.200   1091   1092   1058   1024   1062   1110   1073   1011   1001   1003
156.400    968    918    865    835    926   1022    898    733    802    940
156.600    959    943    982   1021    942    832    807    812    805    794
156.800    783    774    770    763    729    689    664    648    642    653
157.000    726    808    810    773    706    636    616    616    614    618
157.200    649    677    635    580    601    645    646    616    516    413
157.400    433    496    524    535    531    526    548    567    524    474
157.600    509    567    563    548    593    649    632    587    550    524
157.800    538    567    588    597    566    524    514    519    542    572
158.000    600    614    553    482    508    558    538    497    493    496
158.200    469    440    464    502    500    474    405    339    373    429
158.400    395    337    344    376    411    446    471    492    505    511
158.600    500    485    487    493    492    481    434    379    364    365
158.800    374    385    386    383    372    357    340    323    308    298
159.000    313    330    315    295    310    334    330    329    403    486
159.200    464    415    443    483    436    362    326    316    355    405
159.400    415    406    385    356    312    276    307    358    375    382
159.600    399    415    401    369    309    253    279    338    405    452
159.800    386    291    279    295    279    256    257    269    291    314
160.000    327    333    331    337    403    468    413    322    299    311
160.200    358    403    361    298    295    313    308    295    288    299
160.400    385    472    409    304    284    295    291    289    324    360
160.600    329    274    234    217    285    369    361    321    301    294
160.800    312    336    337    337    377    418    382    314    238    172
161.000    176    214    284    359    404    415    321    204    184    202
161.200    223    244    257    269    296    312    251    179    206    265
161.400    292    308    332    351    320    278    276    285    269    238
161.600    184    141    203    292    306    292    286    289    317    342
161.800    299    241    246    267    243    207    203    213    233    253
#.iScn. 2                                                .
#.STPi. 0.02                                                .
#.PSIi. 24                                                .
#.FETA. -1                                                                   .
138.000    215    224    230    233    236    238    240    239    225    208
138.200    209    220    248    268    216    149    147    171    192    204
138.400    176    142    161    194    192    185    220    258    229    190
138.600    233    290    253    197    226    280    282    262    232    203
138.800    196    197    196    193    182    164    126     92    118    163
139.000    183    197    231    265    259    242    248    264    277    285
139.200    273    257    266    275    239    190    168    161    179    209
139.400    249    289    312    319    279    223    172    132    134    158
139.600    212    264    248    216    249    301    321    318    262    198
139.800    202    228    222    209    218    226    186    142    181    248
140.000    288    308    275    223    179    153    194    250    251    234
140.200    242    261    285    300    263    210    181    175    239    311
140.400    283    228    239    268    251    220    219    233    270    304
140.600    277    234    237    256    260    261    272    276    222    155
140.800    146    172    255    341    327    286    308    342    308    260
141.000    280    314    276    225    246    282    248    200    220    257
141.200    241    211    224    252    270    280    270    252    234    224
141.400    249    278    254    216    216    232    246    261    278    289
141.600    268    241    246    258    242    221    238    264    258    241
141.800    229    227    262    306    320    328    364    401    381    339
142.000    292    249    229    227    264    310    329    332    310    282
142.200    274    284    342    397    332    245    280    348    336    301
142.400    312    328    274    210    233    285    310    322    323    312
142.600    267    220    225    256    314    367    346    302    285    275
142.800    243    211    219    249    307    372    411    428    391    343
143.000    340    355    363    366    349    322    278    237    238    260
143.200    302    336    293    237    270    327    330    318    331    345
143.400    309    264    276    304    300    288    298    312    309    302
143.600    307    312    294    275    304    343    334    312    321    341
143.800    346    338    290    248    316    410    411    389    440    497
144.000    439    347    317    309    291    280    326    378    351    303
144.200    300    320    360    400    397    372    323    276    284    306
144.400    285    257    277    310    306    292    298    312    326    338
144.600    340    348    405    458    397    306    290    299    278    258
144.800    296    343    315    276    329    404    404    373    339    307
145.000    300    308    349    392    377    345    346    353    320    283
145.200    303    338    341    330    309    299    356    425    424    391
145.400    345    305    330    379    423    449    397    322    297    298
145.600    337    383    389    373    324    277    307    363    402    417
145.800    347    260    255    297    409    514    444    325    312    333
146.000    308    279    328    397    409    398    379    356    326    302
146.200    318    343    335    324    371    428    419    385    361    346
146.400    357    375    368    349    312    285    344    417    380    315
146.600    322    350    341    314    270    236    277    343    377    397
146.800    404    404    392    380    390    403    389    374    404    447
147.000    462    463    449    425    384    349    381    433    458    458
147.200    387    313    369    455    432    371    330    313    371    448
147.400    470    462    416    371    414    468    402    310    328    379
147.600    370    345    352    373    400    425    420    403    378    357
147.800    376    416    484    540    476    392    446    536    521    474
148.000    474    479    419    344    322    328    362    408    449    476
148.200    440    392    412    447    414    366    381    410    384    344
148.400    342    367    446    526    506    454    443    450    461    476
148.600    507    532    492    435    420    420    410    407    462    519
148.800    471    401    431    473    375    255    305    402    391    349
149.000    365    397    391    386    466    556    526    457    433    428
149.200    431    439    457    472    452    429    460    501    488    455
149.400    422    396    397    405    396    383    385    400    448    495
149.600    462    406    388    389    400    417    441    464    470    463
149.800    419    375    396    441    473    495    499    488    442    392
150.000    392    412    432    455    498    542    559    563    556    538
150.200    493    447    451    465    427    385    422    482    503    514
150.400    549    579    542    486    468    477    536    599    574    531
150.600    576    637    603    536    496    482    548    618    546    441
150.800    453    506    537    551    525    490    487    499    519    539
151.000    541    541    573    619    675    718    677    609    570    548
151.200    559    594    681    761    704    600    536    505    556    622
151.400    603    565    610    676    681    663    655    638    559    485
151.600    561    679    709    704    704    708    724    739    734    720
151.800    709    705    731    769    806    835    832    819    823    829
152.000    817    791    735    694    788    909    895    833    806    798
152.200    818    845    845    834    817    812    885    972    976    953
152.400    965    993   1033   1075   1110   1127   1066    991   1001   1041
152.600   1066   1088   1128   1158   1095   1027   1124   1262   1283   1264
152.800   1275   1299   1321   1344   1372   1399   1411   1418   1430   1431
153.000   1364   1276   1218   1199   1315   1467   1531   1558   1580   1597
153.200   1599   1604   1655   1701   1627   1537   1606   1736   1856   1952
153.400   1953   1911   1852   1796   1787   1808   1882   1981   2097   2192
153.600   2154   2065   1991   1944   2007   2100   2130   2147   2229   2316
153.800   2303   2255   2239   2226   2169   2128   2249   2392   2323   2196
154.000   2201   2225   2081   1913   1970   2115   2253   2369   2385   2369
154.200   2391   2413   2350   2282   2352   2453   2424   2348   2294   2258
154.400   2275   2300   2259   2217   2310   2433   2444   2410   2376   2345
154.600   2324   2307   2282   2268   2329   2400   2378   2318   2261   2227
154.800   2303   2390   2312   2200   2245   2330   2303   2233   2170   2127
155.000   2172   2244   2273   2252   2071   1869   1885   1974   1986   1966
155.200   1933   1887   1804   1737   1822   1936   1893   1811   1849   1910
155.400   1841   1737   1713   1717   1701   1676   1644   1618   1632   1636
155.600   1510   1369   1410   1509   1536   1524   1457   1394   1458   1553
155.800   1555   1531   1568   1611   1554   1463   1394   1347   1370   1418
156.000   1456   1464   1342   1194   1179   1219   1269   1319   1349   1362
156.200   1329   1283   1272   1278   1302   1322   1279   1212   1153   1105
156.400   1094   1098   1107   1124   1176   1219   1150   1054   1043   1057
156.600   1018    972    997   1039   1021    977    922    873    882    918
156.800    974   1036   1085   1099    966    812    850    952    996   1007
157.000    978    931    877    825    795    768    714    666    698    751
157.200    751    742    800    871    880    844    710    571    607    698
157.400    716    706    706    706    687    665    660    655    617    580
157.600    619    682    707    721    755    786    764    719    674    644
157.800    694    758    734    679    652    640    648    660    650    636
158.000    639    638    584    529    579    663    710    725    652    560
158.200    549    577    630    675    627    561    598    668    697    699
158.400    652    595    583    587    576    560    541    519    490    467
158.600    491    535    587    626    577    510    528    566    539    489
158.800    459    447    487    534    521    496    534    592    620    629
159.000    601    565    556    559    565    569    550    534    578    638
159.200    658    649    578    490    442    425    483    556    552    523
159.400    516    516    506    494    494    492    461    427    430    451
159.600    489    519    480    431    462    518    532    523    474    422
159.800    428    459    495    529    540    537    509    472    438    407
160.000    379    373    462    579    643    661    559    435    444    498
160.200    512    503    458    413    446    504    534    538    474    408
160.400    473    563    512    426    451    512    528    515    447    374
160.600    385    426    455    473    463    450    484    508    397    272
160.800    350    479    451    378    390    432    449    450    414    380
161.000    421    473    422    352    392    454    409    340    363    419
161.200    458    481    456    420    425    445    450    448    433    417
161.400    426    440    437    429    430    436    457    471    428    372
161.600    365    378    399    418    414    401    391    391    428    466
161.800    435    384    368    369    382    401    428    449    424    385
#.EOFm.                                                                      .
