#.DATE. 2018-06-22 21:38:41                                                  .
#.GTkV. 25                                                                   .
#.GCmA. 30                                                                   .
#.WLa1. 2.2907                                                              .
#.ANFG. 138                                                                  .
#.ENDE. 162                                                                  .
#.STEP. 0.02                                                                 .
#.t/St. 1                                                                 .
#.nScn. 2                                                             .
#.MaxI. 2940                                                .
#.    .                                                                      .
#.iScn. 1                                                .
#.STPi. 0.02                                                .
#.PSIi. 0                                                .
#.FETA. -1                                                                   .
137.200    233    243    264    278    232    169    140    133    171    227
137.400    283    327    311    284    323    372    336    280    289    314
137.600    281    230    204    191    196    200    161    119    150    202
137.800    216    222    266    315    309    290    314    335    248    147
138.000    191    272    246    191    199    234    269    295    271    233
138.200    223    226    233    240    247    256    278    302    308    297
138.400    241    173    138    142    271    406    313    157    146    190
138.600    224    251    263    269    278    288    298    307    311    307
138.800    273    231    206    192    201    225    274    325    328    313
139.000    303    291    262    232    229    234    227    223    259    305
139.200    321    316    266    211    221    254    269    275    271    268
139.400    290    317    322    321    335    340    270    184    168    186
139.600    231    282    309    327    344    351    318    275    267    279
139.800    319    366    390    394    348    291    279    280    254    230
140.000    266    313    295    264    296    345    344    319    269    227
140.200    277    345    323    271    251    244    243    250    279    310
140.400    309    298    297    300    300    294    268    238    226    228
140.600    260    299    311    309    286    259    258    265    257    239
140.800    200    169    223    294    281    239    217    202    181    163
141.000    176    200    214    227    250    277    296    311    326    341
141.200    361    371    321    256    234    230    224    219    218    224
141.400    260    305    338    352    294    227    252    313    371    415
141.600    399    354    287    226    237    271    276    280    334    388
141.800    342    268    253    249    185    124    203    323    376    396
142.000    383    356    326    298    291    295    308    326    355    386
142.200    402    399    326    240    221    235    280    324    297    252
142.400    267    301    318    324    305    292    356    418    322    198
142.600    257    370    390    378    398    418    379    326    318    327
142.800    330    327    309    292    310    336    333    324    337    361
143.000    397    427    412    378    346    319    318    325    314    305
143.200    339    383    385    377    396    420    414    394    364    335
143.400    333    339    335    323    296    272    300    341    348    347
143.600    366    383    347    305    343    397    369    315    291    284
143.800    299    318    317    305    286    269    274    288    302    315
144.000    321    323    313    311    364    426    418    379    322    269
144.200    272    296    310    323    351    376    351    317    330    352
144.400    329    295    304    325    321    316    351    397    415    419
144.600    411    395    357    312    267    238    282    349    380    390
144.800    375    340    260    185    228    307    330    325    298    267
145.000    261    264    264    276    361    439    334    189    207    287
145.200    349    388    352    295    281    292    340    395    418    423
145.400    398    364    342    330    351    375    349    312    315    337
145.600    371    396    359    318    379    455    401    310    294    316
145.800    378    438    408    354    360    391    427    451    408    348
146.000    338    347    350    340    281    214    199    208    230    261
146.200    304    342    335    316    332    350    311    259    252    272
146.400    329    387    375    338    316    305    320    348    386    416
146.600    386    347    378    426    416    388    393    408    407    405
146.800    438    463    383    281    277    315    361    400    384    358
147.000    392    435    403    355    372    416    460    493    469    438
147.200    482    530    448    342    373    452    498    514    450    371
147.400    377    414    436    446    426    403    430    463    434    385
147.600    358    356    437    525    482    393    340    312    331    372
147.800    426    473    455    416    402    401    417    431    405    377
148.000    417    468    431    371    372    399    430    461    492    517
148.200    517    507    500    484    413    343    385    458    464    450
148.400    468    489    463    427    429    438    402    369    441    533
148.600    514    461    464    486    485    473    453    440    482    528
148.800    487    427    447    491    493    473    423    376    401    445
149.000    439    427    487    544    447    325    383    497    526    518
149.200    490    461    469    490    504    516    530    539    526    515
149.400    559    605    550    468    459    486    546    608    607    586
149.600    592    602    585    564    576    605    644    665    568    446
149.800    437    477    539    599    612    598    541    484    514    573
150.000    607    629    642    648    634    609    564    517    492    490
150.200    558    637    632    600    595    605    635    671    700    721
150.400    716    702    701    702    686    670    684    701    673    643
150.600    692    767    822    850    786    703    702    726    715    711
150.800    815    932    892    814    853    920    894    840    839    859
151.000    879    902    938    967    931    876    855    859    926   1004
151.200   1009    984    957    939    968   1013   1044   1066   1067   1056
151.400   1031   1004    989    982    993   1022   1103   1189   1195   1175
151.600   1188   1214   1240   1261   1257   1266   1385   1518   1498   1425
151.800   1397   1417   1587   1775   1755   1666   1653   1683   1772   1854
152.000   1791   1686   1664   1698   1839   1990   1979   1910   1873   1867
152.200   1952   2049   2018   1943   1903   1891   1952   2038   2103   2149
152.400   2145   2149   2293   2442   2337   2149   2051   2021   2146   2306
152.600   2326   2310   2396   2502   2510   2482   2479   2500   2599   2707
152.800   2700   2636   2510   2423   2648   2940   2940   2827   2726   2643
153.000   2628   2654   2748   2848   2837   2793   2810   2820   2669   2499
153.200   2564   2687   2637   2526   2463   2450   2590   2777   2886   2933
153.400   2828   2675   2584   2540   2604   2707   2783   2833   2800   2744
153.600   2738   2735   2645   2543   2548   2588   2589   2575   2561   2540
153.800   2483   2422   2419   2444   2494   2540   2514   2448   2322   2186
154.000   2115   2087   2137   2203   2188   2163   2256   2367   2331   2248
154.200   2220   2212   2191   2159   2099   2032   1990   1956   1912   1859
154.400   1781   1709   1722   1762   1774   1778   1802   1841   1916   1978
154.600   1900   1776   1697   1656   1710   1774   1698   1574   1487   1430
154.800   1449   1490   1486   1477   1533   1600   1592   1558   1541   1525
155.000   1482   1436   1430   1432   1393   1341   1309   1290   1296   1308
155.200   1301   1287   1273   1261   1254   1249   1237   1233   1278   1315
155.400   1220   1094   1075   1092   1074   1055   1104   1164   1141   1078
155.600    985    900    920    970    958    926    912    916    965   1015
155.800    975    921    974   1046   1001    922    905    900    830    750
156.000    753    781    769    746    745    749    734    706    643    593
156.200    673    787    808    788    751    710    682    662    651    639
156.400    608    592    681    795    817    790    693    590    592    632
156.600    650    658    651    631    569    521    618    743    713    629
156.800    583    568    625    710    793    845    742    601    573    591
157.000    606    620    634    651    681    709    697    667    625    580
157.200    539    508    522    549    554    548    530    519    562    609
157.400    576    522    530    549    506    461    529    619    588    516
157.600    489    481    483    496    546    596    579    539    519    511
157.800    523    540    540    529    490    454    486    535    531    516
158.000    559    608    571    503    458    428    428    448    505    554
158.200    493    402    384    395    403    402    368    332    357    401
158.400    412    412    422    435    446    443    375    309    382    483
158.600    450    384    418    479    470    432    386    348    370    407
158.800    397    379    409    447    425    379    328    288    305    344
159.000    379    408    409    396    370    342    335    338    341    349
159.200    379    407    385    357    402    470    505    516    472    411
159.400    377    353    332    320    345    382    405    426    461    489
159.600    457    405    378    349    268    200    302    448    469    443
159.800    425    408    371    341    379    432    415    376    360    350
160.000    319    282    260    248    256    263    230    199    263    359
160.200    428    464    387    280    250    248    239    234    266    306
160.400    316    314    310    311    339    372    380    372    337    296
160.600    275    269    295    322    294    262    320    390    342    262
160.800    267    294    268    228    228    245    272    296    292    279
161.000    284    298    320    345    362    371    358    341    348    356
#.iScn. 2                                                .
#.STPi. 0.02                                                .
#.PSIi. 15                                                .
#.FETA. -1                                                                   .
137.200    344    363    275    170    190    257    311    341    279    209
137.400    276    370    327    236    177    144    179    244    322    383
137.600    329    247    254    286    273    244    230    220    202    189
137.800    226    271    259    234    252    278    251    211    213    235
138.000    282    322    284    226    228    253    273    286    274    249
138.200    209    174    199    240    249    245    238    230    220    217
138.400    251    294    314    319    302    277    259    251    281    314
138.600    280    238    285    354    361    335    266    190    167    168
138.800    181    199    218    248    327    405    386    322    228    139
139.000    132    157    180    199    205    213    261    312    300    263
139.200    231    201    172    162    237    327    315    273    276    297
139.400    313    324    320    311    304    292    251    209    214    240
139.600    278    304    253    185    187    218    251    284    317    340
139.800    321    285    246    211    199    199    206    216    231    252
140.000    300    341    298    241    274    333    337    316    277    233
140.200    199    175    186    211    243    279    330    380    398    396
140.400    351    300    307    322    260    188    215    281    347    398
140.600    375    327    294    276    298    323    283    225    204    197
140.800    185    180    225    280    290    275    228    183    212    261
141.000    268    258    245    240    280    320    273    215    279    361
141.200    291    185    199    248    232    202    234    279    271    250
141.400    279    319    319    307    317    332    332    332    365    394
141.600    338    263    265    294    306    306    273    234    231    250
141.800    299    351    350    323    271    224    253    301    284    259
142.000    316    388    371    325    304    292    272    252    255    263
142.200    250    235    260    294    300    290    263    231    206    186
142.400    179    185    229    286    325    344    301    249    276    321
142.600    306    271    261    268    310    354    338    302    289    284
142.800    269    267    347    436    410    345    318    305    287    265
143.000    228    193    191    209    252    298    301    301    371    450
143.200    434    386    371    365    339    312    322    346    370    382
143.400    332    273    289    331    353    366    374    373    339    304
143.600    332    378    386    384    414    434    344    227    198    210
143.800    250    295    300    290    282    281    318    365    384    389
144.000    379    358    314    274    307    361    372    360    318    270
144.200    257    262    292    325    321    304    294    288    290    298
144.400    316    341    381    417    401    375    398    433    436    424
144.600    399    374    374    375    332    281    274    289    330    370
144.800    349    315    341    373    318    244    250    280    272    254
145.000    264    276    240    203    264    350    365    361    408    451
145.200    368    252    226    239    268    299    304    301    313    317
145.400    251    178    215    280    273    245    257    289    340    389
145.600    394    376    323    268    268    282    256    226    258    306
145.800    317    313    308    306    324    344    335    319    318    318
146.000    288    254    258    291    384    474    426    334    302    309
146.200    393    473    384    258    277    337    309    260    286    333
146.400    335    328    366    409    385    337    301    285    347    420
146.600    386    318    290    289    340    403    421    416    384    348
146.800    342    351    377    400    381    361    420    494    488    454
147.000    440    429    394    360    373    394    360    313    313    333
147.200    366    395    377    350    365    391    389    376    373    376
147.400    397    420    418    407    398    388    366    351    388    436
147.600    439    414    344    271    276    311    338    356    347    336
147.800    369    421    483    533    503    455    480    519    483    421
148.000    381    357    371    405    461    508    472    414    419    440
148.200    416    384    400    423    380    326    355    413    448    459
148.400    395    323    361    425    404    357    353    374    427    476
148.600    440    376    343    333    368    418    450    471    475    478
148.800    504    526    477    420    473    553    551    523    523    528
149.000    498    458    433    416    402    392    389    396    441    490
149.200    483    461    480    504    467    416    423    448    446    447
149.400    510    573    511    414    394    415    491    573    578    546
149.600    481    421    452    516    555    575    542    501    530    570
149.800    528    482    578    708    731    705    648    580    525    485
150.000    492    524    586    642    611    562    596    651    641    607
150.200    578    556    554    561    573    587    601    605    561    517
150.400    575    663    706    725    719    707    717    732    733    733
150.600    750    767    752    727    714    709    722    740    745    754
150.800    808    874    908    917    863    783    705    643    662    709
151.000    726    742    808    888    936    960    921    871    894    951
151.200   1028   1086   1001    885    902    964    984    981    943    915
151.400   1002   1123   1177   1197   1176   1149   1178   1210   1139   1049
151.600   1071   1124   1113   1096   1169   1269   1316   1329   1280   1231
151.800   1305   1401   1356   1280   1334   1445   1586   1694   1585   1426
152.000   1447   1544   1653   1748   1748   1718   1731   1769   1847   1926
152.200   1927   1895   1854   1817   1812   1815   1796   1786   1866   1972
152.400   2028   2060   2069   2064   2032   2002   2029   2086   2181   2266
152.600   2228   2158   2178   2218   2176   2121   2161   2251   2398   2532
152.800   2489   2380   2294   2250   2366   2533   2635   2690   2640   2556
153.000   2507   2482   2500   2538   2581   2622   2638   2634   2578   2521
153.200   2554   2599   2517   2427   2542   2706   2697   2641   2696   2775
153.400   2744   2677   2643   2636   2689   2741   2660   2553   2584   2655
153.600   2648   2624   2670   2733   2746   2733   2697   2656   2640   2625
153.800   2565   2494   2459   2446   2465   2489   2476   2446   2403   2370
154.000   2415   2471   2426   2328   2175   2054   2208   2424   2398   2288
154.200   2236   2209   2187   2188   2293   2403   2338   2202   2066   1966
154.400   2046   2168   2140   2063   2043   2035   1978   1911   1884   1865
154.600   1801   1732   1725   1744   1769   1798   1831   1843   1745   1618
154.800   1566   1541   1501   1474   1543   1631   1614   1570   1594   1624
155.000   1541   1435   1441   1473   1420   1348   1359   1393   1376   1353
155.200   1408   1463   1365   1241   1297   1395   1345   1262   1315   1398
155.400   1356   1270   1214   1169   1114   1074   1124   1179   1077    949
155.600   1000   1110   1165   1174   1066    943    972   1047   1047   1017
155.800    987    955    913    871    849    835    826    813    773    735
156.000    757    790    758    714    737    782    807    811    755    690
156.200    703    742    755    763    802    848    864    852    760    650
156.400    609    601    628    665    689    703    702    688    647    614
156.600    676    752    705    623    614    643    712    780    760    698
156.800    608    534    605    715    735    711    650    594    637    697
157.000    648    574    585    627    647    656    650    635    602    564
157.200    538    523    548    586    616    626    556    473    485    526
157.400    527    511    495    484    498    522    544    561    555    535
157.600    497    461    480    511    497    480    538    609    598    549
157.800    474    399    379    380    376    378    420    463    434    385
158.000    381    399    439    484    516    535    520    497    499    511
158.200    523    533    532    512    423    332    363    436    474    491
158.400    471    437    400    383    474    580    543    466    474    505
158.600    484    453    475    514    528    527    498    467    484    504
158.800    439    350    303    288    349    428    439    428    442    458
159.000    436    405    410    420    375    322    332    366    389    406
159.200    418    422    401    375    377    398    454    501    433    340
159.400    350    394    393    378    380    384    370    349    336    337
159.600    393    456    446    404    350    294    250    223    263    328
159.800    393    436    374    297    358    444    375    262    236    249
160.000    285    329    361    378    335    275    243    237    298    373
160.200    385    369    348    320    275    237    268    314    300    271
160.400    292    330    360    378    359    331    333    339    303    262
160.600    276    311    341    361    341    310    303    299    268    240
160.800    284    346    361    350    304    255    256    280    314    347
161.000    355    343    281    221    273    351    341    302    301    308
#.EOFm.                                                                      .
