#.DATE. 2018-06-22 20:57:59                                                  .
#.GTkV. 25                                                                   .
#.GCmA. 30                                                                   .
#.WLa1. 2.2907                                                              .
#.ANFG. 128                                                                  .
#.ENDE. 152                                                                  .
#.STEP. 0.04                                                                 .
#.t/St. 0.05                                                                 .
#.nScn. 2                                                             .
#.MaxI. 98                                                .
#.    .                                                                      .
#.iScn. 1                                                .
#.STPi. 0.04                                                .
#.PSIi. 0                                                .
#.FETA. -1                                                                   .
  0.000      0      0      0      0      9     48     77     45     18     12
127.520     34     46     16      4      0      0      9     58     38     21
127.880     18      0      0      0      0      0      7      6      9      0
  0.000      0      0      0      0      0      7      0      0     17     17
128.440     38     40     41     16      0      0     37     20      0      0
  0.000      0      0     78     55      0     20     24     21     18     16
129.120     21     18     15      0      0      4      6     15     12      0
  0.000      0      9     11      5      3     21     41     31      5     44
129.840     65     37     23     14     23     32     38     59     34      6
130.240     24      9     18     27     33      8      0      0      1     43
130.600     35      0      0      0      0     10     15      0      0      5
130.880     21     25     53     25      5     19     37      1      0      0
131.240     17     54     41     43     30     27     46     20     16     43
131.640     24      0     49     63     29     15      9      0      0      0
  0.000      0     27      4      0     17      0      0      0      0      9
132.280     16     17      0     26     61     25      5     10     54     58
132.680     32     23      4     17     22     27     58     73     89     36
133.080     10     15     10      3     19     89     74     16      0     14
133.480      4     19     52     51      8     35     47     24     25      7
133.880     27     14     47     29     35     18      0      0     10     28
134.240      5      0      0      0      0      0      0     20     48     47
134.520     35      0      0     13      0      0     29     24     50     28
134.840     10     20     14     35     63     57     66     29     36     50
135.240     30      0      0     22     33     37      8     40     35     16
135.600     14      0      0      8     43     15     26      2      7     18
135.960     15      9      0      0     28     45     40     53     24     52
136.320     79     73     34      0      0     56     30      0      0      0
  0.000      0     38     53     36      7     29     53     57     91     72
137.000      0     16     55     47     19      8     23     18     57     17
137.400     36     26     24     11     43     56     52     41     46     35
137.800     23     14     28     24     11     13     11     23     17     30
138.200     58     16     22     64     42      0     23      0      0      0
  0.000      0     32     20     17     50     62     38     33     19      9
138.920     44     63     42     12     32     64     75     47     12     34
139.320     10     15     35      0      1      0      0      0      0      0
139.640      7     11     23     26      9     21     41     17     12     45
140.040     22      8     63     44     32     49     40     32     30      0
  0.000      0      0      0      0      0      1      0      0     39     30
140.680     18     18      1     13     33     21     49     62     73     21
141.080     15     36     30     44     35     36     80     71     29      5
141.480      1     20     23     60     20      6     34      0      0     19
141.840     27     14      0      0     13      0     27     35     24     30
142.200     51     22     10      5      2     44     20      3     17      0
  0.000      0      0      0      0     34     53      0     15     36     66
142.920     30     10     11     18     18      7     40     36      4     17
143.320     17     30     60     54     18     46     48      0      0     11
143.680     56     25     15     18      1      8     20     12      0      0
  0.000      0      0     41     43     35     10     37     33     39     94
144.400     92     44     40     67     54     44     27     30     21     61
144.800     14     16     55     61     12      9      3      0      0      0
145.160     10     17     42     55     45     45     42     39     24     25
145.560     18     44     59     64     21     28     49     71     28     53
145.960     54      5     23      1      0      0     55     35      7      0
  0.000      0      0      0     14     11      2     54     26     27     27
146.640     30     15     25     15     28      0      0      0      0     24
146.960     58     16     35     38     44     34     19     26     26     14
147.360     34     45      0      0      4     23     13      7      0      0
147.680      8     35     17     14      0     20     24     26     36     21
148.080     49     55     22     13     16     31     38      7     67     89
148.480     43     28     17     28     25     31     39     20     33     32
148.880     28      7     33     49     26      0      0      0     60     63
149.240     14     11     37     53     53      6     32     38     40     66
149.640     28     21     36     21     48     39      4     17     24     72
150.040     66     35      0      0      0     27     51     28     24     54
150.400     82     44     36     33     54     52     59     34      0      0
150.760     19     10     35     92     98     41     69     62     47     82
151.160     54      0      0      0      0      0      0      0      0      0
#.iScn. 2                                                .
#.STPi. 0.04                                                .
#.PSIi. 15                                                .
#.FETA. -1                                                                   .
127.200     39     33     41     48     37     47     37      7     11     18
127.600      0      0     25     47     72     77     49     35     36     46
128.000     46     41      3     18     64     24     54     60     38     31
128.400     43     45     19     39     44     35     36     39     13     18
128.800     58     63     29     41     25     47     92     81     55     12
129.200     40     73     75     63     21     78    103     94     47     21
129.600     54     25     47     49     30     33     34      6     24     44
130.000     47     26     38     66     45     60     98     42      3      0
  0.000      0     51    102     72     31     36     70     87     66     59
130.760     18     45     69     50     19     33     20     16     70     62
131.160     40     71     61     73     59     23     33     59     57     55
131.560     33     14     17     25     37     29     40     42     61     69
131.960     42     43     52     60     26     14     31     61     66     88
132.360     55     33     45     27     42     43     25     31     61     56
132.760     72     40     37     32     49     27     47     92     81     56
133.160     30     11     39     34     30     39     19     45     56     35
133.560     24     51     63     79     55     52     70     83     41     48
133.960     69    105     49     40     64     62     53     26     34     73
134.360     55     35     37     62     75     65     52     17     38     74
134.760     51     17     60     71     64     46     36     50     29     41
135.160     12      0      0      1     28     48      5     45     83     84
135.520     87     65     41     32     70     94     54     56     10     40
135.920     80     77     48     22     52     38     15     28     60     51
136.320     66     67     45     68     98     86     64     43     20     25
136.720     84     93     52     35     28     85     77     61     55     12
137.120     41     92     76     66     92     76     53     26     26     21
137.520     48     66     50    102    111     59     77     99     82     34
137.920     27     40     34     44     62     72     55     54     53     39
138.320     88     76     48     78     63     44     54     54     56     50
138.720     63     46     62     40      0     28     31     36     68     58
139.120     58     54     88     64     55     46     35     36     46     46
139.520     43     45     75     89     50     39     69     72     47     46
139.920     50     32     53     21     60     77     46     30     27     22
140.320     26     63     57     44     50     75     45     40     43     75
140.720     49     70     52     34     67     84     89    101     81     72
141.120     61     70     27     29     77     38     44     37     35     33
141.520     22     20     24      7      6     24     67     51     63     51
141.920     28     76     76     54     48     78     57     24     10     27
142.320     81     78    100     84     17     34     50     70     83     83
142.720     72     51     33     37     18     25     56     61     44     48
143.120     87     81     66     39     73     29      0      0     21     25
143.480     20     24      9     47     58     27     52     43     14     47
143.880     98     88     59     41     31     43     57     58     36     81
144.280     78     38     23     47     84     67     37     58     60     68
144.680     86     99     55     31     10     12     31     52     70     71
145.080     85    126    112    116     96     99     68     32     17     14
145.480     56     37     38     58     93     47      2     26     29     51
145.880     61     45     71     70     54     39      6     24     33     28
146.280     31     12     49    100     90     84     44     16     48     61
146.680     30     58     71     37     40     38     84     90     90     82
147.080     39     24     26     90     74     53     47     15     53     87
147.480     52     82     43     30     52     18     16     29     58     59
147.880     31     35     45     69     69     90     90     42     41     61
148.280     57     48     74     70     59     54     52     56     39     48
148.680     56     92     78     47      4     41     54     38     41     57
149.080    123     60     30     54     69     50     54     22     37     54
149.480     41     40     34     59     80     77     60     65     24     22
149.880     41     49     51     43     78    104     91     67     56     83
150.280     94     87     92     63     61     96     65     80     53     98
150.680    128     96     59     87     44     46     77     69     80     87
151.080    100    127    104      0      0      0      0      0      0      0
#.EOFm.                                                                      .
