#.DATE. 2018-06-23 00:06:35                                                  .
#.GTkV. 25                                                                   .
#.GCmA. 30                                                                   .
#.WLa1. 2.2907                                                              .
#.ANFG. 138                                                                  .
#.ENDE. 162                                                                  .
#.STEP. 0.02                                                                 .
#.t/St. 1                                                                 .
#.nScn. 4                                                             .
#.MaxI. 2951                                                .
#.    .                                                                      .
#.iScn. 1                                                .
#.STPi. 0.02                                                .
#.PSIi. 0                                                .
#.FETA. -1                                                                   .
138.000    299    287    278    273    285    289    221    140    132    156
138.200    187    219    241    254    242    219    193    176    215    260
138.400    215    147    137    152    169    191    235    277    272    261
138.600    313    370    317    237    234    263    297    323    299    262
138.800    261    276    295    306    273    237    271    319    296    255
139.000    269    292    251    200    221    259    240    208    226    258
139.200    259    245    224    209    236    266    231    182    200    234
139.400    223    198    200    211    217    223    242    265    280    282
139.600    239    188    195    227    266    298    283    248    208    170
139.800    149    151    235    328    309    257    262    280    251    205
140.000    167    143    166    201    201    194    220    257    281    296
140.200    294    291    311    333    310    276    270    287    356    421
140.400    363    271    260    274    248    217    236    266    248    217
140.600    221    240    264    285    284    277    284    291    278    257
140.800    241    224    190    161    187    240    318    391    386    350
141.000    314    273    208    155    207    283    269    228    227    245
141.200    271    290    249    199    221    270    314    342    300    238
141.400    214    211    235    260    238    207    219    247    265    280
141.600    299    313    298    273    250    230    220    223    274    329
141.800    304    251    210    185    220    268    264    245    248    262
142.000    291    322    341    346    303    246    214    198    215    249
142.200    300    350    363    359    345    330    327    328    327    325
142.400    322    320    333    355    395    425    365    283    271    289
142.600    315    336    309    271    273    293    321    346    334    310
142.800    293    284    298    321    337    354    381    403    373    327
143.000    301    286    283    292    334    375    341    294    329    382
143.200    365    322    296    286    329    386    405    404    383    346
143.400    277    220    283    372    343    270    213    174    189    225
143.600    264    305    351    382    325    248    251    278    270    252
143.800    254    268    304    340    336    321    334    348    312    274
144.000    323    389    368    333    405    499    493    456    464    477
144.200    427    352    282    235    293    373    354    312    347    392
144.400    330    247    267    319    320    306    325    346    310    262
144.600    259    277    302    330    361    387    383    369    365    358
144.800    313    269    305    351    288    207    251    332    343    323
145.000    281    250    313    388    338    256    265    306    321    320
145.200    297    268    251    250    305    371    377    361    352    348
145.400    357    361    315    267    306    356    289    206    275    382
145.600    377    339    356    383    347    293    281    292    338    388
145.800    389    370    343    310    265    221    202    197    207    223
146.000    237    259    318    378    371    347    372    409    411    396
146.200    367    330    273    227    273    343    353    339    325    310
146.400    293    284    320    365    365    352    361    371    343    302
146.600    279    263    247    237    259    291    311    322    310    296
146.800    324    361    368    359    337    313    310    317    329    333
147.000    282    224    234    270    296    315    319    310    261    214
147.200    254    315    313    283    244    218    267    341    385    412
147.400    414    399    349    304    351    416    389    344    396    465
147.600    429    362    350    356    345    330    330    341    377    415
147.800    410    394    410    427    389    348    402    475    453    390
148.000    312    246    275    324    286    235    291    378    412    417
148.200    388    359    392    433    389    332    378    450    442    402
148.400    360    332    369    419    401    359    340    339    382    435
148.600    453    450    413    370    362    377    434    485    421    329
148.800    327    357    365    365    365    368    386    412    448    469
149.000    397    304    299    335    398    466    504    513    439    353
149.200    382    440    416    369    365    374    355    342    416    499
149.400    457    385    416    480    504    499    431    361    409    485
149.600    461    413    442    493    499    482    443    408    435    476
149.800    462    438    479    547    623    676    596    481    461    478
150.000    488    493    481    460    423    393    434    492    490    463
150.200    428    391    359    337    357    400    479    554    533    484
150.400    491    515    506    489    497    512    512    502    474    445
150.600    456    477    475    463    454    453    487    542    634    714
150.800    666    580    569    583    579    557    490    425    468    541
151.000    549    534    534    549    608    671    674    653    640    632
151.200    633    630    595    565    622    710    781    833    822    790
151.400    781    783    792    799    782    762    771    780    734    689
151.600    760    863    888    874    818    766    814    890    904    891
151.800    860    832    854    887    877    856    875    899    873    842
152.000    884    953   1005   1036    992    933    944    977    972    960
152.200    989   1029   1038   1042   1086   1142   1178   1200   1197   1185
152.400   1181   1199   1307   1424   1408   1343   1306   1300   1389   1487
152.600   1432   1343   1390   1483   1530   1571   1680   1777   1679   1535
152.800   1553   1639   1747   1846   1861   1840   1803   1771   1800   1854
153.000   1905   1943   1923   1886   1889   1910   1944   1977   1972   1971
153.200   2065   2179   2208   2183   2066   1945   1988   2104   2260   2407
153.400   2432   2407   2377   2378   2546   2737   2716   2619   2566   2532
153.600   2508   2497   2531   2581   2626   2656   2628   2588   2611   2653
153.800   2667   2673   2701   2730   2725   2712   2724   2726   2623   2502
154.000   2493   2517   2482   2447   2524   2636   2696   2747   2853   2951
154.200   2899   2806   2810   2834   2766   2661   2553   2467   2504   2578
154.400   2592   2573   2506   2438   2460   2533   2681   2806   2669   2464
154.600   2443   2456   2275   2086   2242   2491   2512   2433   2311   2199
154.800   2228   2303   2322   2323   2350   2380   2367   2333   2279   2219
155.000   2171   2125   2069   2008   1947   1899   1919   1976   2078   2153
155.200   2001   1794   1762   1793   1788   1776   1805   1840   1817   1765
155.400   1681   1603   1615   1668   1744   1805   1736   1616   1493   1392
155.600   1411   1468   1478   1472   1478   1472   1384   1288   1314   1379
155.800   1401   1411   1451   1475   1362   1219   1198   1230   1283   1346
156.000   1414   1454   1339   1201   1251   1362   1393   1384   1330   1256
156.200   1169   1099   1139   1200   1151   1061    989    939    961   1015
156.400   1089   1151   1116   1060   1091   1135   1072    978    943    917
156.600    822    727    766    859    960   1033    948    821    802    810
156.800    735    643    634    663    719    788    872    930    830    691
157.000    682    718    726    728    765    804    788    746    687    627
157.200    594    584    637    705    722    727    778    829    782    706
157.400    678    657    571    474    449    464    535    620    660    672
157.600    633    586    605    655    722    781    767    719    654    604
157.800    662    743    719    660    631    613    587    560    548    559
158.000    655    757    719    626    536    463    467    502    544    587
158.200    625    647    602    532    470    427    456    509    535    544
158.400    515    478    477    497    544    584    532    457    445    451
158.600    417    378    394    429    446    458    483    499    445    382
158.800    413    468    461    436    446    461    428    389    420    466
159.000    454    418    385    360    372    401    443    475    429    373
159.200    425    508    528    520    505    478    405    336    387    470
159.400    481    464    449    431    391    345    306    289    367    469
159.600    501    496    446    382    338    320    395    481    439    359
159.800    351    368    371    369    362    352    329    312    351    403
160.000    402    387    410    435    394    337    340    359    345    330
160.200    385    442    376    279    278    320    379    429    401    352
160.400    363    392    398    396    409    425    429    423    385    341
160.600    326    317    286    252    245    249    253    256    254    258
160.800    303    360    389    391    313    226    254    313    300    266
161.000    271    295    344    384    334    262    260    279    266    256
161.200    326    400    329    221    215    251    295    329    291    235
161.400    226    240    277    318    333    330    293    251    248    266
161.600    315    366    359    328    294    256    209    174    213    266
161.800    245    205    210    234    258    285    324    355    322    274
#.iScn. 2                                                .
#.STPi. 0.02                                                .
#.PSIi. 15                                                .
#.FETA. -1                                                                   .
138.000    194    145    118    117    203    299    275    219    246    291
138.200    261    215    239    283    289    282    293    300    251    191
138.400    191    216    249    286    326    355    318    260    233    219
138.600    200    186    199    222    240    254    259    258    237    220
138.800    258    305    285    238    181    129    117    132    200    270
139.000    239    184    214    268    272    258    255    254    235    211
139.200    197    191    205    228    258    290    323    347    318    266
139.400    206    156    177    229    288    337    321    284    274    271
139.600    253    238    268    302    267    212    189    188    234    282
139.800    251    204    229    275    283    282    316    346    287    213
140.000    236    283    258    205    156    117    123    151    199    248
140.200    262    259    241    221    221    228    233    233    213    197
140.400    239    286    235    161    165    193    181    166    213    268
140.600    243    191    169    158    144    135    166    212    258    292
140.800    264    230    286    357    323    264    290    337    316    274
141.000    265    267    256    236    199    165    181    216    244    270
141.200    291    304    284    248    205    173    206    256    258    248
141.400    281    321    308    276    257    242    217    194    193    200
141.600    205    217    266    313    276    221    238    274    258    230
141.800    239    265    301    333    330    305    248    199    254    328
142.000    295    227    197    197    267    342    299    224    222    242
142.200    224    205    263    331    300    245    265    307    306    294
142.400    310    338    366    378    312    233    252    306    335    347
142.600    316    271    242    223    219    222    227    239    281    330
142.800    357    358    274    190    273    397    391    341    329    340
143.000    384    425    381    313    292    289    283    280    307    341
143.200    358    361    328    285    272    272    282    298    322    341
143.400    312    270    263    271    287    301    287    267    279    298
143.600    297    280    231    191    256    342    318    269    312    373
143.800    340    278    255    246    233    222    221    233    282    328
144.000    285    228    273    345    345    324    336    353    324    286
144.200    298    321    302    277    309    358    384    388    332    258
144.400    217    199    231    289    377    454    418    350    350    365
144.600    317    253    241    241    201    163    215    297    352    384
144.800    356    311    299    301    303    310    337    364    343    316
145.000    357    406    360    292    306    341    324    292    290    308
145.200    365    420    393    336    296    267    266    287    363    439
145.400    402    334    334    362    387    398    349    286    280    295
145.600    305    305    268    229    253    297    310    309    303    300
145.800    322    345    328    308    360    419    376    300    266    258
146.000    298    354    388    407    391    369    386    408    383    342
146.200    316    300    302    312    321    321    286    250    284    332
146.400    308    278    360    460    428    349    293    264    319    385
146.600    344    274    272    298    324    352    387    419    421    408
146.800    383    352    315    281    282    296    313    328    327    314
147.000    281    250    274    316    340    353    352    345    333    323
147.200    330    340    330    308    268    234    273    334    358    370
147.400    387    403    399    388    380    379    398    416    386    346
147.600    359    391    410    422    422    411    367    320    331    363
147.800    384    394    377    350    330    319    341    381    441    485
148.000    409    301    273    283    320    361    367    364    387    414
148.200    405    382    367    349    299    262    347    453    417    341
148.400    345    379    401    412    388    363    402    461    500    516
148.600    465    397    374    373    385    394    358    316    331    374
148.800    442    496    430    330    298    294    287    286    323    365
149.000    355    334    353    382    376    359    357    356    332    313
149.200    372    451    474    469    439    402    380    366    363    371
149.400    408    441    402    347    357    396    450    492    442    377
149.600    417    485    478    447    441    455    521    579    500    389
149.800    390    431    447    466    550    633    581    487    451    447
150.000    483    520    479    428    483    569    594    588    552    508
150.200    484    472    485    509    543    576    582    567    499    431
150.400    475    556    602    627    617    592    567    549    571    596
150.600    559    504    484    483    506    537    568    584    533    475
150.800    512    580    608    617    609    598    597    590    526    452
151.000    438    449    464    478    483    488    503    524    548    576
151.200    614    646    623    580    544    525    583    652    631    590
151.400    634    706    751    769    702    625    663    737    763    771
151.600    792    807    767    712    691    693    748    815    834    829
151.800    802    776    802    838    824    794    787    788    784    789
152.000    849    926    978   1010    987    946    917    902    932    968
152.200    947    916    947    990    968    936    989   1065   1093   1103
152.400   1124   1144   1129   1098   1054   1028   1125   1251   1276   1267
152.600   1294   1327   1314   1284   1267   1277   1399   1536   1531   1480
152.800   1484   1515   1570   1634   1698   1741   1680   1596   1597   1623
153.000   1601   1568   1582   1603   1574   1542   1603   1686   1694   1680
153.200   1706   1764   1902   2037   1996   1896   1859   1868   1982   2115
153.400   2130   2116   2192   2283   2272   2215   2135   2082   2214   2377
153.600   2325   2212   2224   2278   2292   2300   2358   2433   2495   2536
153.800   2505   2465   2522   2597   2572   2531   2615   2713   2629   2501
154.000   2511   2544   2409   2249   2301   2435   2560   2661   2656   2614
154.200   2602   2606   2631   2640   2521   2386   2424   2518   2544   2522
154.400   2403   2288   2387   2543   2564   2542   2580   2627   2599   2560
154.600   2616   2671   2533   2339   2255   2226   2252   2287   2258   2226
154.800   2301   2389   2329   2234   2269   2336   2310   2257   2262   2269
155.000   2169   2052   2060   2094   2003   1885   1875   1909   1943   1983
155.200   2052   2116   2101   2070   2114   2155   2030   1861   1812   1803
155.400   1759   1709   1699   1696   1646   1585   1561   1544   1494   1443
155.600   1457   1483   1442   1391   1425   1477   1447   1407   1474   1563
155.800   1550   1507   1514   1531   1493   1428   1338   1265   1325   1411
156.000   1354   1255   1234   1237   1202   1154   1118   1099   1150   1211
156.200   1189   1135   1092   1062   1071   1081   1022    942    889    872
156.400    980   1108   1086   1008    952    915    936    984   1050   1110
156.600   1095   1055   1033   1017    990    948    861    760    687    649
156.800    731    847    890    901    895    874    808    733    703    699
157.000    737    781    778    756    734    716    717    724    731    736
157.200    738    731    689    651    703    767    711    630    669    740
157.400    734    700    673    652    649    653    659    669    701    732
157.600    718    685    647    617    638    673    668    648    628    614
157.800    628    650    647    641    663    688    667    638    665    701
158.000    666    612    613    628    610    574    518    481    580    707
158.200    694    630    588    564    592    628    604    564    567    581
158.400    562    535    538    557    599    636    598    545    565    608
158.600    616    605    568    523    493    475    487    509    522    521
158.800    464    390    351    347    456    574    507    397    434    519
159.000    554    559    522    480    498    541    589    627    604    555
159.200    502    454    436    451    566    686    626    508    457    432
159.400    407    385    383    394    430    473    501    515    492    457
159.600    436    425    442    464    458    438    408    384    410    448
159.800    448    425    370    308    276    264    292    332    354    365
160.000    363    363    406    456    458    441    431    420    395    375
160.200    402    427    350    258    291    363    375    373    421    469
160.400    417    337    314    313    312    320    378    448    478    485
160.600    455    417    407    409    408    408    421    439    456    466
160.800    447    421    410    407    409    407    373    332    315    310
161.000    320    337    359    375    352    323    334    354    332    299
161.200    288    285    277    272    295    332    383    424    393    344
161.400    350    378    406    412    310    196    240    334    355    350
161.600    363    380    380    378    391    403    372    328    307    301
161.800    325    354    345    318    281    250    277    322    342    354
#.iScn. 3                                                .
#.STPi. 0.02                                                .
#.PSIi. 30                                                .
#.FETA. -1                                                                   .
138.000    198    233    215    180    175    184    210    230    190    137
138.200    139    164    195    222    211    192    211    232    188    138
138.400    185    251    220    159    138    131    107     89    131    192
138.600    227    247    248    236    191    140    124    127    155    180
138.800    138     84     97    133    154    169    192    218    243    264
139.000    273    276    276    276    289    298    262    219    231    263
139.200    282    295    301    303    297    278    216    153    178    233
139.400    263    276    252    221    224    233    207    181    225    285
139.600    288    263    211    164    189    243    297    336    300    238
139.800    198    167    142    130    163    207    211    196    168    145
140.000    175    218    214    197    204    215    206    195    222    257
140.200    257    247    252    259    239    215    221    236    236    229
140.400    217    212    247    287    265    223    196    184    214    248
140.600    220    179    193    218    185    144    181    246    296    340
140.800    384    411    353    268    220    190    180    186    230    275
141.000    242    185    164    163    187    219    241    256    256    256
141.200    286    318    297    260    250    255    286    316    283    233
141.400    223    232    258    283    276    257    241    229    222    221
141.600    235    251    249    250    304    360    318    245    217    213
141.800    242    271    234    183    198    231    216    193    227    276
142.000    295    291    240    187    216    274    314    341    343    329
142.200    288    240    210    192    194    204    213    229    285    339
142.400    308    258    290    341    332    300    276    254    220    192
142.600    211    247    271    292    316    338    340    336    342    347
142.800    326    298    291    298    330    352    274    173    157    183
143.000    246    316    344    353    347    335    320    306    302    299
143.200    281    260    259    266    281    303    340    374    355    318
143.400    299    291    301    311    276    241    291    365    391    388
143.600    343    295    317    358    351    322    280    242    255    284
143.800    288    276    229    180    188    214    222    227    262    299
144.000    291    268    262    267    300    343    381    408    387    355
144.200    364    384    374    354    339    331    341    350    309    263
144.400    289    340    378    396    345    275    245    239    270    312
144.600    332    342    342    340    350    360    348    332    333    338
144.800    329    316    308    304    309    320    347    375    373    361
145.000    354    341    281    223    264    333    347    336    315    299
145.200    331    374    374    360    364    371    353    327    309    301
145.400    323    350    339    322    348    382    368    331    281    242
145.600    289    359    368    352    341    326    286    249    277    323
145.800    329    326    361    403    400    381    365    350    327    308
146.000    322    348    366    378    382    374    331    290    332    401
146.200    433    433    343    247    300    394    403    389    435    493
146.400    489    459    417    374    346    335    374    418    380    315
146.600    270    246    280    332    351    355    352    351    370    392
146.800    386    367    346    326    316    307    280    254    268    293
147.000    293    288    306    332    348    359    363    361    336    301
147.200    263    240    302    389    434    454    431    388    331    294
147.400    377    480    438    359    382    430    398    350    382    427
147.600    380    318    368    448    460    435    370    300    290    304
147.800    321    347    413    479    462    414    378    359    408    473
148.000    485    471    435    401    415    446    459    466    481    494
148.200    479    457    455    459    455    450    465    480    458    424
148.400    398    376    351    328    323    328    348    371    376    378
148.600    402    436    481    516    475    414    411    428    427    423
148.800    444    478    530    574    536    464    379    307    328    380
149.000    397    407    444    476    429    368    387    429    423    402
149.200    404    421    461    506    521    518    480    432    402    387
149.400    402    423    409    389    411    444    454    456    468    486
149.600    515    542    529    503    487    477    474    470    449    429
149.800    447    470    435    396    452    530    531    498    450    409
150.000    428    465    469    455    424    396    417    453    474    487
150.200    498    506    503    496    497    498    481    461    462    473
150.400    489    506    517    521    510    495    493    491    459    429
150.600    471    527    511    474    470    487    538    588    569    535
150.800    556    590    576    549    559    571    526    474    504    556
151.000    561    553    572    589    541    482    500    541    550    546
151.200    540    540    569    600    586    555    532    525    585    655
151.400    645    610    613    626    613    586    549    516    528    561
151.600    611    676    789    887    815    697    687    716    719    704
151.800    657    614    654    718    732    728    729    738    772    810
152.000    815    797    729    657    668    707    721    720    691    666
152.200    719    800    864    911    903    884    919    967    976    963
152.400    914    872    945   1037   1001    928    931    964    991   1012
152.600   1021   1038   1118   1200   1162   1093   1104   1137   1115   1088
152.800   1144   1226   1268   1290   1292   1273   1184   1097   1157   1263
153.000   1311   1329   1320   1303   1298   1304   1345   1393   1409   1418
153.200   1454   1500   1549   1574   1469   1347   1393   1500   1571   1626
153.400   1677   1712   1672   1619   1646   1711   1799   1887   1922   1938
153.600   1964   1978   1910   1824   1806   1822   1863   1899   1855   1801
153.800   1855   1948   2011   2051   2028   1989   1998   2019   2005   1985
154.000   2005   2028   1988   1950   2052   2203   2317   2403   2419   2392
154.200   2292   2188   2216   2281   2272   2250   2303   2360   2282   2170
154.400   2155   2165   2110   2059   2166   2310   2319   2271   2205   2151
154.600   2195   2262   2244   2200   2193   2188   2118   2037   2031   2066
154.800   2159   2258   2269   2251   2264   2289   2306   2324   2365   2385
155.000   2250   2095   2143   2243   2188   2098   2140   2208   2144   2032
155.200   1942   1879   1911   1961   1909   1844   1914   2018   2019   1971
155.400   1884   1794   1759   1763   1847   1927   1829   1688   1692   1748
155.600   1772   1763   1651   1538   1633   1782   1785   1732   1694   1655
155.800   1586   1515   1499   1496   1448   1403   1465   1568   1669   1742
156.000   1680   1567   1466   1379   1340   1323   1323   1339   1405   1471
156.200   1439   1364   1274   1193   1192   1217   1215   1194   1126   1061
156.400   1098   1167   1189   1192   1192   1182   1134   1085   1112   1160
156.600   1153   1125   1099   1073   1047   1015    951    885    871    879
156.800    895    915    935    958    993   1032   1066   1078    990    875
157.000    830    832    934   1049   1032    960    875    802    816    851
157.200    821    772    763    770    782    790    768    736    714    713
157.400    797    890    861    782    695    624    650    706    725    731
157.600    744    758    767    780    831    881    850    790    753    718
157.800    648    588    648    743    775    780    782    774    727    677
158.000    687    712    691    658    665    689    725    754    731    681
158.200    599    526    558    621    628    613    604    600    601    598
158.400    557    517    557    618    625    609    583    564    599    649
158.600    669    675    672    662    631    600    619    643    595    537
158.800    571    632    646    642    638    633    625    616    610    599
159.000    553    504    508    535    562    585    585    571    537    500
159.200    488    492    526    565    571    557    514    472    487    511
159.400    467    414    461    532    526    495    489    494    502    505
159.600    472    443    510    598    591    555    556    562    521    477
159.800    513    566    542    497    497    507    476    442    481    542
160.000    565    568    549    525    523    525    505    478    453    433
160.200    438    452    469    482    467    445    441    455    517    577
160.400    526    449    467    520    561    589    579    553    525    498
160.600    474    452    429    413    440    481    507    518    484    434
160.800    394    373    429    502    510    485    423    361    371    408
161.000    443    470    459    436    431    434    441    449    462    468
161.200    432    385    361    350    354    366    388    408    397    379
161.400    394    417    412    397    392    400    461    529    526    497
161.600    484    470    416    360    373    411    442    462    444    416
161.800    418    435    469    504    515    507    444    378    402    450
#.iScn. 4                                                .
#.STPi. 0.02                                                .
#.PSIi. 45                                                .
#.FETA. -1                                                                   .
138.000    204    120    146    207    223    226    249    270    238    192
138.200    186    191    169    142    138    140    122    103    114    135
138.400    138    139    168    203    215    216    214    208    195    179
138.600    161    150    169    198    214    219    199    172    162    159
138.800    162    165    152    127     82     42     72    128    176    216
139.000    241    253    238    216    211    212    206    200    206    212
139.200    196    175    169    177    222    270    259    233    247    272
139.400    269    253    230    212    231    257    245    219    206    202
139.600    218    235    214    188    212    248    245    233    248    267
139.800    254    232    230    235    235    238    263    284    240    180
140.000    168    180    210    244    258    260    241    214    195    190
140.200    237    290    268    222    206    211    264    317    273    200
140.400    169    158    165    183    216    251    263    266    272    276
140.600    262    242    234    232    241    251    238    222    238    262
140.800    266    261    254    249    257    265    240    213    241    280
141.000    264    236    256    282    236    175    179    207    220    224
141.200    206    191    228    277    284    275    266    264    290    319
141.400    298    267    283    304    262    211    250    305    268    207
141.600    206    232    270    303    293    261    214    171    185    212
141.800    199    183    235    303    308    288    268    253    266    284
142.000    272    251    247    247    240    232    231    233    237    244
142.200    269    289    247    197    224    279    321    353    365    369
142.400    374    374    339    302    320    346    304    247    258    295
142.600    327    352    347    327    285    246    262    294    296    286
142.800    271    261    279    301    280    246    234    235    264    296
143.000    285    264    283    314    333    343    332    318    337    368
143.200    391    406    399    380    348    309    263    236    311    403
143.400    376    312    293    295    304    314    317    320    335    347
143.600    324    293    297    309    289    267    295    342    384    410
143.800    366    304    289    296    321    347    343    329    322    315
144.000    298    288    336    395    386    353    336    337    390    454
144.200    466    452    405    354    351    365    369    368    362    357
144.400    364    362    290    214    259    338    342    319    308    309
144.600    345    384    370    338    327    325    318    321    379    442
144.800    422    378    386    402    361    308    307    328    354    372
145.000    343    303    301    310    294    281    328    394    430    445
145.200    413    371    368    375    360    344    365    396    407    409
145.400    411    414    420    420    377    323    300    298    335    376
145.600    362    333    342    362    360    353    361    371    360    348
145.800    381    419    399    362    363    375    365    346    317    293
146.000    307    335    350    362    384    402    382    356    381    421
146.200    430    428    437    446    425    395    373    356    344    333
146.400    317    309    351    400    384    342    300    278    355    455
146.600    476    467    460    449    413    370    340    319    313    324
146.800    388    458    447    406    381    367    373    392    431    465
147.000    431    382    396    434    459    469    432    381    357    350
147.200    378    411    399    377    397    433    474    504    472    425
147.400    425    441    445    440    407    371    380    407    441    471
147.600    476    471    471    471    459    450    473    501    489    457
147.800    406    366    415    482    469    435    463    507    514    509
148.000    517    522    482    435    440    459    445    422    429    448
148.200    472    490    471    437    400    373    404    446    425    396
148.400    452    528    537    520    503    488    478    473    480    483
148.600    446    404    420    459    495    526    542    543    502    454
148.800    451    459    427    393    429    480    468    434    423    424
149.000    440    459    458    452    458    466    462    452    429    408
149.200    427    461    497    531    556    564    502    428    433    468
149.400    499    526    538    536    494    445    438    449    465    482
149.600    497    511    524    538    567    586    532    470    519    590
149.800    543    461    442    455    503    551    526    478    463    464
150.000    480    501    516    520    484    439    434    443    447    449
150.200    453    462    499    541    550    541    510    483    519    570
150.400    563    534    512    502    545    597    586    553    535    525
150.600    526    538    579    621    616    593    573    561    574    594
150.800    591    573    528    479    465    463    453    450    505    568
151.000    556    516    483    466    516    582    598    598    621    640
151.200    594    535    543    571    567    560    595    631    587    526
151.400    545    595    647    694    721    733    713    690    714    738
151.600    672    587    590    631    686    732    713    671    647    637
151.800    655    687    724    760    774    780    781    777    753    726
152.000    722    728    731    723    668    607    610    636    657    678
152.200    714    759    817    871    872    854    846    843    846    848
152.400    830    807    798    794    791    804    891    989    998    975
152.600    966    969   1007   1039    974    892    917    977    998   1002
152.800    996    988    990   1004   1058   1115   1107   1077   1067   1068
153.000   1081   1094   1085   1071   1076   1103   1210   1322   1302   1247
153.200   1275   1321   1284   1229   1252   1290   1243   1186   1241   1327
153.400   1343   1338   1371   1410   1404   1387   1405   1435   1457   1472
153.600   1470   1473   1529   1593   1586   1554   1545   1549   1573   1597
153.800   1579   1562   1625   1702   1682   1649   1740   1836   1712   1539
154.000   1562   1662   1747   1811   1797   1769   1831   1921   1974   1990
154.200   1895   1778   1779   1822   1840   1855   1902   1941   1878   1803
154.400   1875   1982   1972   1932   1970   2036   2081   2102   2048   1999
154.600   2125   2273   2181   2021   2006   2039   2029   2003   1992   2010
154.800   2150   2299   2256   2142   2056   1998   2020   2073   2118   2148
155.000   2121   2080   2081   2091   2063   2028   2038   2060   2053   2041
155.200   2058   2084   2101   2112   2108   2090   2027   1955   1925   1896
155.400   1790   1689   1761   1895   1986   2036   1966   1879   1947   2048
155.600   2007   1913   1838   1793   1866   1954   1882   1770   1778   1825
155.800   1827   1815   1823   1820   1724   1610   1598   1623   1633   1637
156.000   1646   1640   1554   1460   1488   1557   1591   1606   1599   1596
156.200   1658   1712   1598   1438   1386   1377   1365   1354   1360   1385
156.400   1480   1583   1591   1550   1452   1349   1333   1345   1329   1297
156.600   1245   1203   1256   1325   1291   1227   1228   1241   1192   1136
156.800   1170   1231   1244   1233   1197   1161   1178   1206   1181   1141
157.000   1134   1140   1145   1151   1170   1190   1192   1179   1134   1076
157.200   1017    963    939    933    957    985    976    959    977   1004
157.400   1004    988    941    883    838    817    889    976    945    879
157.600    876    895    898    903    953   1006    984    945    972   1006
157.800    937    853    899    974    932    855    830    823    801    787
158.000    844    910    875    807    782    785    841    898    849    770
158.200    759    781    833    873    790    685    720    792    777    737
158.400    747    771    762    759    849    942    858    726    699    715
158.600    729    744    759    772    767    755    744    732    707    680
158.800    670    664    651    644    682    725    701    665    696    739
159.000    707    654    649    662    670    679    700    726    754    772
159.200    745    707    707    716    687    649    646    652    638    614
159.400    582    560    611    676    668    627    573    523    528    565
159.600    657    751    745    699    655    624    661    707    663    597
159.800    598    621    622    619    639    669    699    724    723    705
160.000    660    610    587    589    664    741    683    594    618    683
160.200    722    739    701    644    603    579    604    635    604    557
160.400    555    567    557    548    581    619    600    571    602    647
160.600    637    611    612    629    676    714    654    577    620    690
160.800    663    610    617    643    641    629    630    631    602    565
161.000    545    533    533    539    558    579    582    583    614    647
161.200    633    595    527    467    507    573    571    552    586    630
161.400    611    575    580    595    572    542    555    581    586    579
161.600    560    537    517    507    537    576    577    562    544    525
161.800    512    506    520    545    582    614    598    566    555    558
#.EOFm.                                                                      .
