#.DATE. 2018-06-23 12:28:00                                                  .
#.GTkV. 25                                                                   .
#.GCmA. 30                                                                   .
#.WLa1. 2.2907                                                              .
#.ANFG. 138                                                                  .
#.ENDE. 162                                                                  .
#.STEP. 0.02                                                                 .
#.t/St. 1                                                                 .
#.nScn. 2                                                             .
#.MaxI. 2892                                                .
#.    .                                                                      .
#.iScn. 1                                                .
#.STPi. 0.02                                                .
#.PSIi. 0                                                .
#.FETA. -1                                                                   .
138.000    277    254    201    152    178    227    241    235    197    162
138.200    199    256    270    260    220    179    194    223    207    181
138.400    195    230    289    337    288    214    212    244    308    366
138.600    335    278    263    256    206    153    178    228    245    246
138.800    237    225    225    223    192    154    136    134    169    211
139.000    211    197    193    205    279    348    272    158    142    169
139.200    208    249    278    305    345    378    341    277    211    165
139.400    219    298    297    271    275    288    284    268    222    175
139.600    182    204    196    181    196    228    292    348    309    236
139.800    191    170    214    273    274    251    221    202    245    298
140.000    281    244    252    269    244    213    232    269    288    293
140.200    268    236    237    254    281    301    261    211    233    279
140.400    307    318    285    245    254    286    343    394    373    324
140.600    277    245    281    329    299    248    254    275    262    243
140.800    258    282    286    286    309    331    301    262    273    303
141.000    320    323    286    238    218    219    267    327    355    371
141.200    387    387    307    210    188    206    274    343    319    268
141.400    270    292    302    309    320    321    272    209    183    179
141.600    215    262    289    301    286    255    198    142    146    173
141.800    198    224    262    289    241    185    239    319    312    273
142.000    246    225    209    200    218    242    246    248    281    322
142.200    337    336    315    290    292    311    365    415    378    322
142.400    343    389    406    401    340    268    259    274    284    292
142.600    300    311    334    344    267    177    194    251    294    322
142.800    297    259    263    286    325    359    330    290    320    362
143.000    322    275    351    450    413    325    260    219    255    312
143.200    324    315    294    280    323    376    367    339    341    347
143.400    308    266    296    340    312    264    256    261    253    238
143.600    221    213    254    302    295    270    273    293    342    393
143.800    404    393    360    319    280    252    274    317    368    410
144.000    387    344    323    311    300    298    335    375    356    322
144.200    328    346    344    326    268    213    248    312    336    342
144.400    336    323    295    279    352    431    366    266    275    332
144.600    414    479    409    309    332    397    425    427    369    297
144.800    275    276    287    301    307    305    281    254    252    259
145.000    261    263    275    280    230    173    191    239    285    327
145.200    346    351    329    308    339    383    390    383    378    371
145.400    354    333    319    316    363    412    376    323    355    406
145.600    384    340    336    347    356    365    381    386    326    262
145.800    310    388    397    374    325    275    278    299    307    303
146.000    269    240    294    357    292    206    271    379    394    371
146.200    341    311    289    269    238    208    211    234    289    340
146.400    307    251    244    264    324    382    350    295    306    337
146.600    333    318    317    319    316    317    356    395    354    293
146.800    287    307    347    385    371    346    361    389    394    381
147.000    326    261    229    221    262    316    345    364    390    406
147.200    367    309    269    246    270    302    287    266    305    358
147.400    354    330    313    303    315    329    313    289    286    288
147.600    270    246    232    235    298    368    345    298    319    361
147.800    370    367    369    366    333    301    341    397    394    361
148.000    290    226    274    355    382    384    361    350    442    555
148.200    560    526    514    505    471    434    433    439    405    357
148.400    316    292    336    402    436    452    435    409    405    407
148.600    402    404    453    499    435    344    343    359    285    206
148.800    284    406    443    441    422    403    419    444    439    419
149.000    381    348    382    430    423    395    379    371    386    411
149.200    438    462    466    464    475    484    455    421    440    473
149.400    471    458    458    465    477    488    484    476    477    479
149.600    474    471    493    513    475    426    440    476    490    493
149.800    480    467    490    519    503    476    484    501    488    467
150.000    459    466    515    565    533    472    428    399    418    452
150.200    463    465    469    474    487    505    533    558    546    524
150.400    522    528    529    532    548    561    526    487    521    570
150.600    544    498    504    529    552    576    607    624    559    477
150.800    470    499    555    614    638    645    635    613    559    500
151.000    475    483    592    710    665    577    601    666    721    757
151.200    721    663    633    617    608    603    603    616    686    762
151.400    758    730    742    765    764    759    779    791    712    622
151.600    665    753    798    812    759    696    718    778    856    926
151.800    915    882    909    948    935    912    941    987   1011   1020
152.000    992    957    954    971   1025   1083   1092   1073   1008    937
152.200    936    963    993   1025   1057   1086   1097   1101   1110   1124
152.400   1161   1192   1148   1093   1132   1222   1383   1543   1550   1503
152.600   1494   1500   1501   1499   1487   1478   1504   1539   1547   1552
152.800   1591   1635   1642   1642   1684   1736   1760   1779   1836   1885
153.000   1816   1721   1732   1780   1793   1800   1840   1891   1927   1977
153.200   2124   2271   2225   2119   2108   2125   2099   2071   2126   2215
153.400   2307   2376   2319   2218   2157   2129   2189   2280   2348   2416
153.600   2537   2642   2559   2448   2570   2767   2867   2892   2727   2524
153.800   2506   2561   2613   2644   2580   2501   2537   2595   2536   2457
154.000   2512   2596   2561   2507   2590   2705   2703   2666   2681   2704
154.200   2662   2591   2506   2431   2430   2457   2482   2498   2474   2442
154.400   2450   2460   2398   2349   2502   2702   2730   2685   2615   2542
154.600   2504   2476   2428   2389   2432   2484   2416   2304   2212   2145
154.800   2166   2208   2177   2133   2172   2239   2281   2299   2247   2171
155.000   2115   2080   2110   2138   2024   1884   1893   1935   1848   1742
155.200   1791   1880   1854   1787   1747   1729   1773   1829   1828   1798
155.400   1735   1667   1642   1651   1742   1829   1732   1582   1527   1514
155.600   1516   1514   1462   1398   1376   1372   1381   1393   1390   1376
155.800   1330   1299   1403   1523   1452   1325   1304   1318   1289   1253
156.000   1265   1286   1249   1196   1179   1171   1133   1092   1093   1105
156.200   1085   1043    953    868    908    985    995    974    930    892
156.400    932    995   1010   1012   1045   1075   1024    953    950    961
156.600    909    841    823    831    867    894    816    714    699    728
156.800    803    884    895    866    774    681    715    786    797    777
157.000    730    681    677    695    728    753    700    629    624    644
157.200    653    662    696    728    705    666    662    668    657    640
157.400    627    615    603    597    621    644    602    547    558    583
157.600    542    491    525    590    643    680    659    615    576    542
157.800    531    539    596    657    646    619    654    700    679    626
158.000    548    485    544    625    576    488    470    480    492    501
158.200    495    497    570    649    612    530    458    411    474    565
158.400    583    566    525    474    413    364    387    427    410    387
158.600    451    535    552    532    461    394    453    547    561    536
158.800    475    414    428    466    477    474    458    435    407    387
159.000    417    452    410    354    380    425    407    376    415    469
159.200    465    437    414    395    391    395    407    420    418    415
159.400    439    470    488    490    445    388    368    366    387    415
159.600    433    447    456    462    460    451    430    410    415    421
159.800    374    317    320    344    356    362    355    343    332    319
160.000    288    263    305    370    420    450    410    350    331    334
160.200    357    388    416    433    405    364    346    347    395    443
160.400    404    339    314    308    314    332    390    453    464    443
160.600    364    279    277    306    320    331    354    374    355    328
160.800    336    352    337    316    333    367    408    435    380    310
161.000    328    367    331    274    262    272    302    339    368    382
161.200    338    285    308    349    325    289    323    379    402    403
161.400    362    315    320    347    377    392    319    223    187    184
161.600    227    282    301    309    342    381    405    417    401    367
161.800    306    241    211    198    197    202    215    230    238    242
#.iScn. 2                                                .
#.STPi. 0.02                                                .
#.PSIi. 24                                                .
#.FETA. -1                                                                   .
138.000    184    204    164    111    116    139    137    132    159    194
138.200    207    201    145     85    102    149    189    215    179    132
138.400    147    179    169    150    166    193    207    209    184    154
138.600    154    174    231    284    245    178    151    143    145    149
138.800    145    134    110     90    120    162    165    159    183    210
139.000    189    154    147    149    138    122    104     92    108    134
139.200    150    157    134    107    113    137    178    215    200    174
139.400    197    232    233    214    159    106    141    198    190    157
139.600    129    111    133    162    146    118    120    137    171    202
139.800    191    167    162    162    155    151    174    201    194    177
140.000    172    176    202    241    310    372    344    275    184    109
140.200    156    239    259    253    250    242    202    161    172    194
140.400    164    123    124    146    193    238    231    209    216    231
140.600    236    233    217    201    215    239    258    269    253    239
140.800    282    332    302    242    192    159    191    235    212    173
141.000    189    223    235    240    245    250    252    252    250    249
141.200    253    264    298    336    343    325    248    162    145    160
141.400    201    236    183    113    133    182    196    192    166    144
141.600    184    244    287    316    307    280    241    196    146    108
141.800    140    195    220    229    211    185    169    165    198    233
142.000    203    163    203    269    303    313    261    200    209    242
142.200    250    248    243    238    238    244    273    301    277    239
142.400    230    228    209    196    245    310    333    334    307    272
142.600    252    241    250    263    264    258    239    215    193    176
142.800    189    208    200    197    271    353    323    254    208    175
143.000    154    148    190    238    213    167    164    178    189    199
143.200    214    231    251    273    293    309    300    275    215    161
143.400    204    272    275    265    328    394    330    231    214    225
143.600    209    187    187    196    213    232    243    261    332    401
143.800    355    272    233    218    239    276    315    341    297    238
144.000    246    267    223    164    163    192    254    313    286    229
144.200    197    177    168    170    197    225    205    175    197    235
144.400    256    272    300    325    317    297    290    284    258    226
144.600    201    191    241    307    334    340    311    279    295    323
144.800    311    283    252    228    247    274    255    230    271    332
145.000    355    355    318    276    284    312    335    342    276    201
145.200    231    287    266    236    315    418    431    405    367    328
145.400    306    297    326    366    383    388    381    363    310    260
145.600    287    329    291    235    250    287    289    288    341    404
145.800    415    396    332    262    254    268    275    276    259    244
146.000    277    315    278    224    227    248    249    245    263    289
146.200    316    332    288    230    219    226    230    242    309    377
146.400    343    280    274    280    234    181    191    219    206    189
146.600    240    304    295    261    250    253    279    309    308    302
146.800    336    376    367    345    348    352    306    254    269    307
147.000    326    342    375    405    388    344    260    186    239    329
147.200    352    350    358    368    367    362    363    366    363    360
147.400    373    396    431    457    413    355    367    392    344    278
147.600    277    298    307    313    329    344    334    317    314    317
147.800    326    336    336    337    358    382    374    361    383    415
148.000    422    411    357    293    267    269    331    402    396    355
148.200    284    222    260    328    348    341    302    265    303    364
148.400    390    397    376    344    312    286    293    310    309    315
148.600    391    468    410    320    343    397    380    340    331    340
148.800    369    405    428    448    478    506    509    487    397    300
149.000    308    347    332    301    295    306    352    396    355    301
149.200    344    411    406    375    357    347    346    351    371    391
149.400    384    371    380    399    428    455    455    438    383    323
149.600    313    325    350    383    431    472    446    405    418    441
149.800    409    367    385    425    458    479    453    414    397    396
150.000    432    464    407    340    398    490    501    484    493    514
150.200    537    545    475    388    379    407    463    520    521    505
150.400    520    545    552    541    475    399    386    404    449    497
150.600    503    493    483    484    537    590    539    463    464    502
150.800    568    622    558    464    460    489    501    513    557    598
151.000    566    513    505    514    523    525    500    478    521    594
151.200    682    756    727    657    592    546    592    652    602    525
151.400    534    576    605    621    595    567    607    652    579    493
151.600    580    713    726    691    648    610    613    628    615    602
151.800    646    700    694    667    656    662    718    775    732    671
152.000    713    789    820    834    845    860    903    936    864    773
152.200    799    855    833    791    809    846    858    860    862    867
152.400    888    915    937    957    972    996   1072   1146   1112   1046
152.600   1045   1070   1102   1131   1136   1137   1158   1186   1204   1217
152.800   1225   1224   1185   1142   1159   1205   1283   1360   1372   1366
153.000   1403   1447   1443   1413   1353   1304   1372   1475   1528   1549
153.200   1515   1476   1520   1584   1580   1560   1598   1663   1745   1814
153.400   1791   1734   1691   1656   1641   1641   1681   1744   1844   1946
153.600   1991   1997   1925   1854   1950   2090   2121   2105   2068   2028
153.800   2019   2038   2129   2222   2183   2103   2080   2089   2146   2199
154.000   2137   2045   2030   2068   2214   2389   2489   2538   2480   2383
154.200   2298   2220   2154   2122   2245   2389   2331   2212   2188   2203
154.400   2225   2237   2192   2150   2233   2351   2386   2394   2432   2468
154.600   2439   2373   2255   2144   2168   2234   2242   2217   2150   2074
154.800   2035   2021   2059   2109   2124   2131   2176   2216   2155   2067
155.000   2054   2067   2067   2060   2053   2048   2060   2066   2012   1939
155.200   1896   1856   1778   1696   1679   1688   1700   1717   1746   1776
155.400   1787   1795   1820   1834   1756   1650   1584   1547   1573   1612
155.600   1586   1533   1470   1412   1392   1399   1460   1531   1548   1541
155.800   1518   1494   1501   1510   1461   1393   1348   1309   1250   1185
156.000   1127   1086   1120   1182   1237   1278   1263   1218   1141   1071
156.200   1103   1158   1130   1081   1097   1124   1081   1014    974    959
156.400   1020   1091   1052    994   1058   1145   1105   1017    937    868
156.600    833    819    848    896    951    979    860    709    695    735
156.800    775    808    806    793    797    805    803    800    813    830
157.000    831    827    834    842    829    804    765    729    728    740
157.200    740    733    706    679    685    700    685    668    698    732
157.400    698    646    649    670    679    681    673    666    681    704
157.600    725    739    722    689    646    606    608    629    665    693
157.800    656    601    594    600    573    533    495    471    522    596
158.000    642    665    633    579    528    488    498    527    553    569
158.200    545    518    558    601    532    449    523    635    630    588
158.400    593    606    562    507    505    525    544    565    606    639
158.600    600    542    534    548    569    580    524    464    512    585
158.800    563    516    529    557    532    492    483    490    507    518
159.000    474    418    412    430    465    492    445    384    397    427
159.200    397    359    402    470    498    505    484    458    462    469
159.400    431    393    443    515    517    494    483    474    453    435
159.600    459    490    479    451    418    391    397    416    429    430
159.800    391    349    379    430    446    443    416    389    406    430
160.000    407    381    435    510    527    513    459    399    394    412
160.200    440    462    437    397    374    368    410    461    459    439
160.400    437    439    418    389    366    361    426    499    465    406
160.600    432    481    474    446    428    412    389    365    353    347
160.800    353    371    429    479    410    311    294    310    326    343
161.000    367    398    454    499    440    363    401    462    408    322
161.200    303    317    364    420    453    471    457    438    451    470
161.400    459    439    439    436    381    327    380    455    423    361
161.600    361    374    335    286    289    309    312    320    388    458
161.800    413    335    319    336    396    460    451    411    361    322
#.EOFm.                                                                      .
