#.DATE. 2018-06-03 12:29:16                                                  .
#.GTkV. 25                                                                   .
#.GCmA. 30                                                                   .
#.WLa1. 2.2907                                                              .
#.ANFG. 140                                                                  .
#.ENDE. 24                                                                  .
#.STEP. 0.04                                                                 .
#.t/St. 1                                                                 .
#.nScn. 4                                                             .
#.MaxI. 338                                                .
#.    .                                                                      .
#.iScn. 1                                                .
#.STPi. 0.04                                                .
#.PSIi. 0                                                .
#.FETA. -1                                                                   .
128.000    274    262    250    267    252    233    215    223    270    252
128.400    279    259    253    271    259    238    265    285    243    265
128.800    249    256    270    248    234    264    234    243    236    248
129.200    250    249    228    275    256    271    276    263    251    275
129.600    271    278    259    254    265    283    245    257    239    227
130.000    267    264    228    260    282    265    283    240    254    238
130.400    267    236    257    257    239    251    257    272    245    265
130.800    256    283    257    269    246    288    258    275    274    259
131.200    271    287    247    289    240    266    305    249    249    284
131.600    262    255    269    245    276    263    276    252    257    259
132.000    251    254    248    248    266    254    266    246    282    249
132.400    294    256    276    272    266    263    277    306    270    274
132.800    286    255    260    265    276    246    282    252    262    273
133.200    273    257    253    271    262    269    269    275    249    275
133.600    249    279    298    281    257    251    251    246    249    282
134.000    257    254    259    249    274    269    293    285    270    254
134.400    262    278    270    255    261    247    261    254    272    289
134.800    261    244    292    237    254    272    241    268    253    256
135.200    260    299    269    273    274    244    247    252    272    276
135.600    279    283    287    251    259    295    290    277    262    264
136.000    283    245    251    254    255    278    246    281    274    252
136.400    283    262    268    290    275    271    277    261    274    254
136.800    283    252    242    241    262    302    276    266    267    253
137.200    281    247    241    275    243    265    292    278    264    259
137.600    283    271    311    291    277    294    277    247    282    245
138.000    273    298    258    262    260    278    293    260    282    300
138.400    286    252    271    285    298    272    275    261    285    293
138.800    277    272    229    222    293    292    283    250    259    251
139.200    267    299    298    267    268    249    293    272    292    268
139.600    290    266    283    251    259    284    272    277    240    298
140.000    251    280    274    281    290    254    271    276    272    313
140.400    281    272    293    246    308    301    283    244    278    275
140.800    277    279    293    263    273    281    259    267    294    257
141.200    294    258    280    267    273    310    274    263    268    287
141.600    255    272    292    278    260    240    302    300    287    266
142.000    274    295    287    263    297    255    251    281    275    245
142.400    282    241    280    268    247    269    272    295    252    269
142.800    270    287    267    277    270    292    264    252    293    268
143.200    262    272    260    308    274    286    280    289    248    263
143.600    298    284    289    302    246    283    285    285    267    259
144.000    281    278    275    272    275    238    271    291    290    291
144.400    298    268    260    280    279    257    276    255    277    296
144.800    274    284    282    295    298    290    264    286    274    259
145.200    280    263    281    259    233    272    276    297    278    290
145.600    232    272    281    277    279    293    273    270    226    259
146.000    266    271    279    264    275    258    272    267    289    282
146.400    279    295    280    273    254    273    276    289    239    281
146.800    261    288    252    273    285    264    275    260    275    261
147.200    268    259    270    272    289    256    293    258    287    261
147.600    241    246    272    291    303    267    275    276    270    266
148.000    298    296    236    247    283    256    303    254    272    282
148.400    280    263    238    252    277    312    292    300    304    268
148.800    284    261    267    284    293    274    253    296    266    261
149.200    286    280    261    305    259    279    271    272    285    271
149.600    271    262    288    254    269    302    299    284    285    286
150.000    297    304    296    305    278    248    279    280    277    290
150.400    273    283    260    315    321    278    251    280    274    256
150.800    297    303    285    264    318    283    277    287    263    310
151.200    264    291    277    276    293    288    268    315    277    294
151.600    294    282    279    294    300    308    285    279    338    319
#.iScn. 2                                                .
#.STPi. 0.04                                                .
#.PSIi. 15                                                .
#.FETA. -1                                                                   .
128.000    255    290    278    265    223    247    241    237    254    257
128.400    233    233    285    281    260    250    243    256    241    264
128.800    273    244    257    261    233    286    278    268    256    257
129.200    228    246    236    299    248    268    250    266    285    265
129.600    265    232    222    263    296    257    280    251    250    271
130.000    240    243    270    260    271    267    251    240    262    272
130.400    277    253    270    261    283    284    274    244    251    288
130.800    255    277    258    261    271    276    266    241    252    256
131.200    280    241    261    248    256    283    244    239    240    283
131.600    291    240    253    282    257    233    259    243    258    264
132.000    250    258    237    237    270    261    261    253    267    233
132.400    259    258    284    294    238    278    265    276    281    260
132.800    274    249    248    263    297    264    264    266    255    245
133.200    286    269    260    260    259    261    262    283    261    266
133.600    240    263    291    282    245    263    273    288    258    274
134.000    301    260    272    273    288    247    261    258    281    296
134.400    286    265    250    264    240    299    260    263    278    260
134.800    244    274    230    271    260    240    286    261    263    271
135.200    262    291    296    259    267    291    237    259    268    279
135.600    278    265    282    286    272    298    236    265    278    255
136.000    266    280    259    297    279    260    259    266    245    268
136.400    280    282    249    273    243    251    261    303    262    267
136.800    248    278    245    270    286    249    274    281    286    269
137.200    278    268    272    275    263    270    254    301    266    311
137.600    282    263    252    248    283    277    281    277    290    301
138.000    304    261    276    273    262    316    270    261    282    294
138.400    275    272    299    258    272    275    277    266    286    276
138.800    269    280    269    261    257    326    270    284    256    278
139.200    282    271    261    273    257    267    249    292    260    272
139.600    291    256    288    286    282    295    313    287    271    280
140.000    281    261    285    265    255    261    264    259    297    299
140.400    279    271    262    285    267    281    321    284    277    255
140.800    246    281    262    275    313    287    266    278    269    246
141.200    265    243    295    270    304    302    289    284    270    301
141.600    285    268    254    307    283    293    262    240    289    259
142.000    294    301    249    250    274    271    278    266    299    277
142.400    276    285    299    290    250    269    268    290    258    281
142.800    271    293    262    273    251    291    269    277    259    291
143.200    269    290    268    258    280    296    284    293    281    274
143.600    281    272    290    285    269    303    301    310    287    261
144.000    273    273    272    283    287    268    251    289    288    286
144.400    287    258    313    288    256    324    275    278    271    270
144.800    280    266    256    302    291    290    274    259    314    285
145.200    251    279    284    281    288    272    264    293    270    266
145.600    277    283    282    297    241    281    259    283    292    278
146.000    263    291    244    305    256    282    280    247    241    274
146.400    286    289    261    270    282    261    261    270    300    257
146.800    281    285    317    251    282    263    256    298    295    268
147.200    289    295    273    284    293    254    284    260    272    321
147.600    249    269    285    292    289    259    295    266    271    294
148.000    258    258    308    310    291    276    276    280    260    260
148.400    247    257    324    285    295    268    277    300    287    287
148.800    269    282    260    253    277    264    329    274    261    286
149.200    270    264    296    283    302    251    250    258    272    280
149.600    309    306    307    267    250    307    270    269    281    304
150.000    312    316    304    306    288    313    303    301    285    284
150.400    296    294    251    285    288    270    294    265    285    291
150.800    291    329    262    300    311    260    305    296    295    297
151.200    289    322    269    277    283    280    287    292    281    285
151.600    278    303    280    293    275    289    265    306    330    272
#.iScn. 3                                                .
#.STPi. 0.04                                                .
#.PSIi. 30                                                .
#.FETA. -1                                                                   .
128.000    248    256    269    282    229    266    241    252    229    276
128.400    283    275    248    246    247    269    254    256    266    245
128.800    258    269    244    287    236    252    252    244    279    269
129.200    234    275    298    241    270    276    223    253    231    270
129.600    262    252    249    232    258    236    224    274    244    272
130.000    260    270    274    243    226    266    281    261    243    261
130.400    253    288    268    256    240    266    255    273    260    263
130.800    225    221    254    240    251    280    238    239    276    259
131.200    280    258    254    281    264    271    247    272    250    263
131.600    238    225    252    230    247    276    275    272    274    266
132.000    265    247    263    248    286    244    309    253    285    281
132.400    271    288    280    272    300    264    268    251    276    283
132.800    251    239    284    262    278    271    260    241    251    280
133.200    261    273    267    275    268    260    283    256    275    308
133.600    255    281    267    260    279    273    268    275    265    263
134.000    268    299    292    276    255    268    254    265    279    261
134.400    254    289    253    241    288    261    268    280    265    240
134.800    246    250    274    241    287    281    278    268    261    255
135.200    235    263    269    287    296    306    288    256    265    274
135.600    256    272    259    264    269    289    265    277    257    273
136.000    273    246    274    266    274    284    266    261    274    254
136.400    268    275    258    229    258    283    258    242    247    275
136.800    276    276    259    294    235    275    252    279    279    250
137.200    242    290    264    277    270    279    311    280    298    251
137.600    273    312    288    279    259    226    308    278    294    307
138.000    277    262    290    244    283    293    292    303    263    294
138.400    265    307    305    278    304    280    262    263    265    257
138.800    278    309    286    254    288    292    282    270    267    283
139.200    277    275    270    258    262    297    279    285    278    267
139.600    292    295    261    282    292    279    262    286    296    250
140.000    258    252    280    266    298    307    272    270    303    256
140.400    280    270    255    267    271    266    298    293    277    298
140.800    269    270    269    247    245    260    295    276    273    305
141.200    279    295    282    245    256    262    278    288    274    254
141.600    250    311    275    276    250    253    262    255    285    280
142.000    288    259    284    286    283    262    256    282    265    289
142.400    248    257    306    274    255    274    283    308    277    294
142.800    269    246    269    288    310    258    294    275    282    256
143.200    289    264    269    261    269    280    271    283    281    275
143.600    285    238    285    296    252    257    284    273    277    306
144.000    266    274    235    260    272    274    281    259    295    265
144.400    280    291    303    282    300    287    264    277    270    227
144.800    265    259    262    297    253    284    271    277    291    264
145.200    239    253    256    280    265    287    255    249    275    282
145.600    267    259    248    296    272    288    262    283    267    271
146.000    292    277    258    268    278    287    295    241    263    265
146.400    270    254    296    253    254    272    272    231    225    278
146.800    260    274    295    271    254    289    274    282    269    277
147.200    281    262    288    282    260    269    253    258    228    261
147.600    259    292    272    294    299    294    269    308    260    238
148.000    275    276    276    266    265    284    288    284    277    244
148.400    275    307    266    291    269    279    250    301    301    295
148.800    288    277    301    238    290    294    270    282    280    279
149.200    278    295    287    287    286    289    263    332    290    282
149.600    265    268    270    276    280    315    298    299    265    269
150.000    281    280    275    304    283    295    292    289    260    281
150.400    299    282    268    262    305    292    271    244    297    279
150.800    297    301    314    269    297    295    268    250    278    255
151.200    275    289    321    280    288    289    289    287    285    292
151.600    287    257    288    306    293    282    287    276    287    281
#.iScn. 4                                                .
#.STPi. 0.04                                                .
#.PSIi. 45                                                .
#.FETA. -1                                                                   .
128.000    261    244    260    237    239    266    224    244    259    250
128.400    246    233    254    268    253    267    219    251    253    244
128.800    301    242    248    253    277    250    235    247    272    284
129.200    263    259    251    268    251    280    245    293    265    265
129.600    256    249    228    238    241    268    274    246    234    264
130.000    269    271    228    255    270    265    257    260    259    258
130.400    248    224    247    249    263    283    256    252    238    244
130.800    238    240    247    281    250    260    218    260    258    275
131.200    262    255    244    274    237    264    242    245    249    267
131.600    284    282    271    268    264    244    272    282    252    249
132.000    264    252    258    230    293    267    279    259    247    320
132.400    282    284    267    264    276    280    272    274    294    270
132.800    273    270    296    247    243    290    267    258    263    259
133.200    278    285    272    256    250    263    261    264    258    267
133.600    275    268    252    279    257    286    286    271    260    242
134.000    249    284    304    274    235    266    277    276    284    265
134.400    265    267    289    271    278    263    254    264    267    260
134.800    238    259    288    297    265    269    256    275    254    259
135.200    280    275    271    242    250    274    294    288    254    285
135.600    281    299    237    266    276    292    248    236    268    261
136.000    263    278    293    265    256    271    268    239    243    234
136.400    276    255    278    246    270    282    247    281    271    264
136.800    258    252    257    255    259    265    263    277    248    269
137.200    279    274    253    302    285    271    277    275    287    284
137.600    266    254    279    278    276    291    252    279    292    318
138.000    298    290    269    236    282    262    253    276    273    283
138.400    269    265    292    286    275    286    297    274    269    279
138.800    279    279    295    276    248    255    267    274    282    264
139.200    289    290    253    247    241    281    252    278    253    272
139.600    259    282    280    284    290    294    299    268    256    250
140.000    247    284    263    248    282    272    290    285    270    285
140.400    304    290    278    288    265    290    290    281    263    275
140.800    296    292    297    263    254    248    279    276    271    237
141.200    281    263    289    253    282    264    250    282    278    295
141.600    268    299    272    276    259    270    284    258    268    269
142.000    290    269    271    276    274    264    281    281    242    270
142.400    283    254    300    247    257    263    258    298    251    268
142.800    260    303    277    282    281    291    293    252    288    277
143.200    264    271    282    251    269    269    272    277    290    254
143.600    282    258    287    268    264    234    290    264    279    291
144.000    254    284    268    266    258    263    259    305    274    279
144.400    261    283    286    248    247    262    287    294    272    270
144.800    289    289    250    290    259    291    244    299    272    264
145.200    274    242    283    286    295    260    228    272    276    255
145.600    295    281    264    277    282    286    263    300    274    265
146.000    265    242    278    261    274    255    257    237    274    250
146.400    269    272    258    271    274    286    290    270    279    241
146.800    298    264    300    281    269    255    261    287    282    270
147.200    269    253    264    276    291    296    247    242    289    299
147.600    247    250    257    307    262    272    235    279    303    264
148.000    305    283    286    280    304    265    284    311    255    244
148.400    228    291    276    286    283    251    308    256    271    309
148.800    271    273    288    277    259    277    288    296    298    287
149.200    284    266    284    270    303    304    248    274    302    272
149.600    284    272    280    272    289    275    274    265    258    259
150.000    257    262    265    282    282    285    274    292    295    290
150.400    268    299    286    291    270    305    266    304    257    269
150.800    279    255    300    275    261    272    255    267    268    256
151.200    281    301    277    274    279    295    276    281    283    275
151.600    278    277    303    293    269    299    320    297    293    282
#.EOFm.                                                                      .
