#.DATE. 2018-06-23 12:54:38                                                  .
#.GTkV. 25                                                                   .
#.GCmA. 30                                                                   .
#.WLa1. 2.2907                                                              .
#.ANFG. 138                                                                  .
#.ENDE. 162                                                                  .
#.STEP. 0.02                                                                 .
#.t/St. 1                                                                 .
#.nScn. 2                                                             .
#.MaxI. 2963                                                .
#.    .                                                                      .
#.iScn. 1                                                .
#.STPi. 0.02                                                .
#.PSIi. 0                                                .
#.FETA. -1                                                                   .
138.000    295    276    217    162    215    294    285    245    228    221
138.200    216    216    238    263    263    247    204    168    220    291
138.400    274    230    226    238    250    255    228    191    164    151
138.600    183    229    253    263    242    217    240    274    268    252
138.800    268    293    305    309    306    293    245    195    205    238
139.000    266    290    306    319    339    350    311    264    285    319
139.200    283    228    215    218    218    214    203    192    198    217
139.400    271    327    326    300    263    226    215    224    273    329
139.600    335    321    305    288    263    237    224    229    296    366
139.800    328    258    253    272    284    288    262    232    239    257
140.000    260    254    241    226    213    221    329    441    375    258
140.200    247    268    233    192    241    301    244    152    120    124
140.400    183    252    253    233    243    263    274    284    301    310
140.600    267    207    166    145    194    256    251    223    215    220
140.800    245    268    238    195    199    212    181    146    176    221
141.000    210    183    191    215    250    282    271    249    255    275
141.200    302    333    372    409    418    413    393    363    314    265
141.400    251    260    313    362    309    231    235    267    282    283
141.600    244    202    218    258    295    314    246    172    236    333
141.800    314    259    262    275    221    155    156    188    242    300
142.000    339    366    367    357    350    352    392    436    420    379
142.200    333    290    269    265    304    349    339    311    300    295
142.400    285    280    312    342    295    235    263    311    274    225
142.600    278    347    292    205    202    225    216    207    265    340
142.800    368    373    353    320    270    236    309    398    355    278
143.000    291    323    267    195    223    283    306    314    321    318
143.200    271    221    241    291    346    389    357    303    287    293
143.400    324    360    368    359    328    289    250    222    246    294
143.600    365    432    434    409    376    345    337    340    346    355
143.800    366    383    425    458    398    311    284    290    349    411
144.000    378    320    320    341    347    349    356    364    362    362
144.200    394    423    380    316    289    278    270    271    305    345
144.400    340    318    294    273    266    270    305    343    330    299
144.600    283    280    317    364    388    396    374    341    314    294
144.800    294    304    319    336    345    347    334    317    313    320
145.000    349    374    339    285    261    251    249    253    265    287
145.200    338    387    376    348    360    372    307    226    215    234
145.400    256    279    294    307    328    352    373    383    343    292
145.600    284    291    280    265    265    272    285    300    305    316
145.800    374    430    384    315    331    366    326    268    268    289
146.000    292    294    326    361    353    334    355    383    373    351
146.200    352    362    369    369    342    311    312    320    303    280
146.400    285    313    398    482    444    371    365    374    326    273
146.600    303    355    342    318    366    418    353    270    331    433
146.800    456    447    428    399    337    279    309    365    373    368
147.000    396    418    340    244    258    311    337    350    343    343
147.200    410    479    423    336    345    390    415    431    437    432
147.400    394    349    337    340    346    349    327    314    393    488
147.600    480    436    425    426    419    411    418    435    475    507
147.800    446    367    386    436    443    443    493    545    512    453
148.000    442    438    374    304    321    364    364    350    361    375
148.200    359    340    364    394    364    326    368    428    418    380
148.400    344    316    330    362    405    442    423    391    414    444
148.600    407    351    332    330    341    357    373    382    355    326
148.800    365    423    441    443    445    443    419    397    420    454
149.000    445    421    410    411    449    492    492    485    533    583
149.200    533    458    458    482    481    470    464    457    435    412
149.400    414    424    424    420    419    416    395    384    460    553
149.600    561    536    521    501    443    377    352    353    398    455
149.800    487    498    457    401    375    367    387    417    437    451
150.000    450    450    477    504    476    437    456    488    472    438
150.200    412    404    464    533    504    451    473    510    475    420
150.400    405    408    413    422    451    488    528    550    470    377
150.600    418    506    564    602    605    596    604    614    607    599
150.800    618    633    578    511    531    578    590    598    657    717
151.000    674    605    614    643    616    578    605    650    662    657
151.200    637    627    702    786    752    690    729    795    790    754
151.400    713    686    747    822    787    733    797    887    864    807
151.600    805    820    808    796    836    883    863    822    806    806
151.800    833    868    893    912    924    938    969    996    969    932
152.000    945    975    987    984    944    907    957   1021    985    920
152.200    908    922    954    993   1024   1057   1118   1185   1226   1247
152.400   1226   1189   1157   1126   1090   1077   1191   1337   1395   1412
152.600   1407   1402   1442   1486   1458   1425   1504   1612   1640   1637
152.800   1639   1657   1743   1847   1899   1925   1921   1919   1986   2063
153.000   2060   2005   1853   1712   1813   1974   1953   1893   2001   2145
153.200   2128   2063   2083   2120   2073   2001   1968   1977   2126   2312
153.400   2406   2436   2328   2209   2317   2483   2494   2469   2579   2706
153.600   2648   2529   2475   2490   2720   2963   2839   2620   2654   2773
153.800   2804   2799   2792   2778   2733   2698   2783   2875   2769   2615
154.000   2622   2667   2572   2456   2508   2625   2724   2786   2698   2590
154.200   2680   2813   2759   2641   2572   2543   2622   2731   2773   2765
154.400   2632   2467   2389   2372   2488   2647   2753   2804   2688   2525
154.600   2455   2428   2421   2417   2385   2331   2230   2138   2183   2280
154.800   2365   2422   2364   2285   2328   2406   2417   2405   2410   2395
155.000   2248   2096   2181   2308   2170   1964   1951   1997   1953   1884
155.200   1865   1866   1859   1842   1790   1752   1855   1983   1950   1855
155.400   1775   1718   1746   1794   1772   1713   1609   1492   1405   1340
155.600   1330   1356   1450   1556   1580   1562   1491   1416   1428   1464
155.800   1453   1431   1447   1465   1412   1327   1232   1156   1200   1279
156.000   1293   1274   1223   1158   1083   1026   1072   1157   1226   1266
156.200   1199   1113   1144   1205   1181   1122   1059    993    917    857
156.400    892    962   1012   1039    989    914    863    837    894    962
156.600    917    839    824    835    851    865    859    846    838    830
156.800    812    792    779    761    703    649    698    767    728    670
157.000    737    831    815    767    779    802    762    703    684    680
157.200    678    683    726    762    690    598    626    680    622    538
157.400    546    588    623    646    619    578    564    560    558    558
157.600    569    590    631    676    693    699    708    710    674    627
157.800    603    592    596    599    565    524    513    527    603    688
158.000    698    670    602    531    523    542    566    590    602    613
158.200    639    662    635    588    536    495    521    561    541    501
158.400    479    475    518    561    509    439    469    527    530    511
158.600    500    487    448    417    482    566    545    493    493    507
158.800    491    472    501    526    433    319    333    388    390    382
159.000    434    495    481    446    459    487    490    481    459    440
159.200    464    495    471    430    411    405    422    445    450    454
159.400    488    514    443    351    349    375    359    339    374    425
159.600    439    434    404    363    317    291    375    480    467    407
159.800    345    296    309    341    346    334    292    256    312    383
160.000    349    293    339    414    434    430    416    392    341    294
160.200    320    378    443    493    455    386    343    320    341    373
160.400    380    381    407    441    468    480    432    369    351    351
160.600    351    346    316    284    292    312    307    294    284    284
160.800    321    364    365    341    274    211    256    329    324    289
161.000    257    244    314    401    400    362    312    269    279    307
161.200    310    303    288    272    266    270    304    345    362    372
161.400    392    409    390    349    278    212    236    291    324    345
161.600    346    338    317    293    282    280    295    315    330    344
161.800    370    387    344    291    315    352    305    237    224    235
#.iScn. 2                                                .
#.STPi. 0.02                                                .
#.PSIi. 24                                                .
#.FETA. -1                                                                   .
138.000    216    216    241    271    283    282    257    233    254    277
138.200    212    131    145    187    184    172    208    255    257    239
138.400    208    180    192    221    256    286    273    253    285    319
138.600    268    194    178    191    231    266    229    175    181    210
138.800    233    255    290    318    286    236    214    210    233    255
139.000    215    159    140    148    217    299    316    307    290    280
139.200    320    360    300    219    236    277    243    195    227    280
139.400    278    261    279    303    289    257    213    164    107     67
139.600    127    208    197    163    201    255    251    228    235    240
139.800    180    115    158    238    285    309    286    244    202    173
140.000    204    247    222    180    191    215    197    178    229    296
140.200    295    267    240    217    204    198    199    210    261    319
140.400    340    344    338    320    259    194    192    213    219    225
140.600    261    303    313    306    273    230    192    162    165    177
140.800    167    158    193    233    213    179    196    232    253    267
141.000    273    277    289    295    249    196    208    239    230    203
141.200    158    127    206    302    270    194    158    147    184    228
141.400    212    188    241    312    318    303    316    335    327    307
141.600    276    238    190    157    222    304    274    217    244    295
141.800    301    293    305    313    262    201    200    220    220    220
142.000    262    306    283    241    238    246    235    218    206    193
142.200    165    139    148    171    187    206    247    287    277    254
142.400    264    285    288    290    325    361    339    295    264    241
142.600    230    232    277    330    335    320    298    278    276    281
142.800    278    275    289    300    267    238    313    408    398    345
143.000    292    249    263    294    303    298    268    244    300    370
143.200    348    303    323    354    305    236    220    231    267    308
143.400    321    315    272    228    251    290    272    242    262    292
143.600    269    234    245    271    276    274    287    305    321    334
143.800    334    326    311    297    300    303    273    246    309    386
144.000    361    314    359    420    379    303    257    227    214    213
144.200    237    261    238    212    266    346    391    412    375    320
144.400    293    280    282    293    319    342    317    281    286    310
144.600    341    366    348    318    319    326    295    257    259    271
144.800    251    234    290    361    354    320    306    304    324    350
145.000    367    378    371    349    289    225    221    243    276    316
145.200    363    398    358    297    279    289    347    409    386    331
145.400    281    243    253    284    320    353    358    350    335    329
145.600    380    435    398    334    320    332    371    410    394    356
145.800    320    297    340    389    333    251    244    274    334    397
146.000    415    405    347    281    275    286    264    238    267    318
146.200    377    423    384    319    287    269    251    246    305    380
146.400    410    415    390    355    335    320    298    277    273    279
146.600    305    337    361    370    329    281    303    350    380    400
146.800    402    386    322    254    271    320    367    410    438    453
147.000    432    394    349    317    365    426    394    343    390    467
147.200    498    505    488    454    379    306    329    379    368    336
147.400    324    330    387    451    445    415    404    409    460    510
147.600    459    377    346    341    358    386    427    463    444    408
147.800    394    390    396    408    428    453    485    506    460    405
148.000    432    475    433    367    351    358    381    404    392    367
148.200    344    331    365    413    444    461    443    417    423    440
148.400    455    460    420    370    360    362    343    330    393    470
148.600    461    417    378    351    377    419    429    424    404    391
148.800    442    498    457    390    388    403    370    328    336    364
149.000    393    422    445    463    471    470    447    420    415    421
149.200    440    464    485    503    512    515    503    481    438    403
149.400    458    534    540    512    457    406    425    475    537    579
149.600    501    393    377    393    392    393    441    497    503    487
149.800    463    437    426    426    459    495    480    451    458    479
150.000    494    502    493    482    496    508    462    410    450    511
150.200    502    471    477    498    527    553    551    540    542    548
150.400    544    548    612    679    638    567    564    577    535    489
150.600    531    593    570    519    491    475    466    465    489    523
150.800    559    580    526    460    484    540    577    604    613    619
151.000    647    673    652    618    611    616    627    633    594    545
151.200    528    525    527    535    564    596    598    594    619    656
151.400    699    732    699    644    617    608    631    664    682    698
151.600    735    773    771    754    742    730    708    688    695    711
151.800    717    721    735    748    738    725    752    782    752    716
152.000    770    845    843    821    849    890    898    888    858    822
152.200    794    784    844    920    934    935    986   1039    997    924
152.400    884    876    957   1047   1008    941    986   1064   1080   1076
152.600   1094   1118   1132   1151   1215   1290   1328   1349   1357   1365
152.800   1403   1438   1398   1342   1356   1395   1417   1427   1405   1379
153.000   1392   1412   1393   1367   1378   1415   1510   1607   1594   1545
153.200   1529   1528   1529   1539   1587   1650   1710   1759   1766   1757
153.400   1752   1753   1779   1819   1882   1938   1916   1874   1894   1930
153.600   1929   1927   1995   2079   2100   2099   2113   2138   2188   2231
153.800   2194   2139   2162   2203   2178   2130   2102   2093   2144   2199
154.000   2157   2091   2092   2120   2153   2196   2282   2378   2436   2447
154.200   2303   2128   2108   2157   2243   2336   2395   2418   2325   2221
154.400   2302   2419   2349   2238   2292   2411   2525   2613   2581   2497
154.600   2390   2277   2184   2112   2113   2140   2151   2145   2090   2040
154.800   2110   2214   2247   2244   2211   2184   2252   2326   2238   2121
155.000   2177   2288   2324   2315   2226   2117   2063   2037   2043   2051
155.200   2012   1972   2017   2079   2048   1989   1978   1988   2005   1998
155.400   1856   1689   1672   1713   1751   1774   1737   1676   1622   1573
155.600   1544   1525   1519   1521   1535   1544   1508   1464   1472   1512
155.800   1615   1712   1651   1536   1469   1421   1370   1318   1271   1232
156.000   1231   1248   1275   1302   1304   1304   1346   1385   1329   1240
156.200   1179   1138   1137   1145   1113   1081   1127   1195   1210   1198
156.400   1156   1115   1137   1179   1193   1178   1078    975   1025   1115
156.600   1093   1029    974    935    962    995    918    825    869    954
156.800    977    969    926    891    963   1043    951    814    794    814
157.000    806    788    781    778    770    765    784    805    792    766
157.200    739    723    768    825    816    779    740    700    657    629
157.400    682    748    709    640    626    636    658    672    626    576
157.600    628    705    710    698    743    787    714    617    632    681
157.800    676    652    635    621    607    606    670    747    757    736
158.000    692    640    596    564    570    594    628    658    645    619
158.200    616    619    606    590    595    601    564    527    577    645
158.400    636    607    630    661    630    589    621    675    686    675
158.600    641    601    586    592    656    724    689    607    498    390
158.800    344    338    414    518    602    660    631    574    554    551
159.000    565    581    577    567    567    563    520    476    497    545
159.200    595    639    651    654    672    686    652    598    547    509
159.400    530    568    581    583    587    577    498    409    402    433
159.600    491    544    523    481    479    497    534    568    555    523
159.800    489    455    418    388    396    417    420    423    464    512
160.000    517    500    461    420    414    428    470    510    477    425
160.200    425    445    465    480    475    455    407    362    392    453
160.400    520    567    498    399    386    413    464    506    463    403
160.600    435    485    446    387    402    433    402    362    402    454
160.800    403    323    308    320    340    361    365    379    472    572
161.000    552    486    431    390    393    410    417    429    491    551
161.200    499    407    332    281    320    380    372    345    364    395
161.400    386    377    441    513    470    388    334    304    334    374
161.600    339    295    351    429    419    384    407    447    452    448
161.800    461    467    408    337    341    372    388    390    354    311
#.EOFm.                                                                      .
