#.DATE. 2018-06-03 12:31:06                                                  .
#.GTkV. 25                                                                   .
#.GCmA. 30                                                                   .
#.WLa1. 2.2907                                                              .
#.ANFG. 155                                                                  .
#.ENDE. 24                                                                  .
#.STEP. 0.04                                                                 .
#.t/St. 1                                                                 .
#.nScn. 4                                                             .
#.MaxI. 820                                                .
#.    .                                                                      .
#.iScn. 1                                                .
#.STPi. 0.04                                                .
#.PSIi. 0                                                .
#.FETA. -1                                                                   .
143.000    242    265    284    237    252    230    243    283    252    269
143.400    265    280    268    293    254    290    271    269    270    262
143.800    270    239    262    248    291    247    246    265    271    256
144.200    284    254    306    264    256    265    269    288    264    278
144.600    280    275    234    286    257    269    235    255    245    236
145.000    276    265    246    240    270    257    244    251    256    246
145.400    248    258    252    256    221    266    276    260    257    266
145.800    260    232    261    284    244    258    266    234    300    284
146.200    269    279    269    274    239    282    261    275    253    251
146.600    261    274    267    266    258    255    277    273    250    242
147.000    243    261    280    310    246    242    251    261    273    284
147.400    301    280    293    283    292    287    297    282    267    254
147.800    280    311    272    310    277    279    283    274    308    304
148.200    283    287    315    265    289    297    259    305    327    272
148.600    270    246    267    271    280    276    307    292    261    281
149.000    294    279    296    284    276    286    290    314    300    264
149.400    283    279    308    299    287    311    297    296    297    294
149.800    320    273    323    294    326    315    287    328    309    326
150.200    312    293    327    340    335    324    337    300    323    332
150.600    332    326    349    305    359    309    284    309    317    359
151.000    349    329    329    345    339    304    368    335    359    359
151.400    347    363    371    365    362    371    366    350    363    390
151.800    413    402    369    388    418    396    396    406    411    417
152.200    413    462    418    421    436    479    527    498    461    519
152.600    551    505    546    574    541    557    536    646    602    613
153.000    593    680    642    579    677    615    704    701    687    720
153.400    710    675    731    734    790    704    737    717    749    731
153.800    764    772    762    791    806    773    717    789    729    787
154.200    820    744    810    800    777    788    767    772    771    754
154.600    743    742    767    728    737    804    706    693    693    690
155.000    687    687    682    641    652    651    608    650    643    662
155.400    570    618    611    614    584    590    565    512    578    540
155.800    505    518    468    463    536    506    474    487    443    460
156.200    506    477    454    464    447    438    451    462    422    437
156.600    418    422    414    419    388    389    385    407    395    409
157.000    390    422    411    379    371    378    354    349    403    382
157.400    344    385    364    376    360    384    380    367    341    379
157.800    374    327    356    383    334    350    345    323    349    354
158.200    326    366    302    314    302    323    299    353    321    282
158.600    304    321    313    311    299    341    308    339    349    293
159.000    332    326    292    308    315    304    287    313    313    310
159.400    321    301    315    307    316    288    295    320    278    277
159.800    320    312    302    312    322    312    290    309    256    303
160.200    263    268    279    273    307    283    295    295    299    281
160.600    300    309    289    256    284    298    272    295    345    289
161.000    298    275    280    289    296    308    284    316    284    308
161.400    265    300    280    292    287    283    229    266    266    275
161.800    267    253    292    273    266    273    252    273    302    279
162.200    291    312    284    274    242    305    308    290    268    274
162.600    299    261    271    302    288    297    287    294    288    262
163.000    283    283    257    284    284    285    281    284    294    283
163.400    270    274    302    299    253    271    282    293    248    275
163.800    259    279    266    267    296    276    294    290    276    278
164.200    268    259    249    269    270    285    275    279    272    255
164.600    282    264    274    271    264    284    251    272    243    256
165.000    285    272    276    275    237    250    260    272    285    247
165.400    279    263    253    268    280    271    259    292    265    261
165.800    250    260    290    271    277    278    266    243    252    263
166.200    239    240    261    271    266    266    273    268    259    280
166.600    267    268    247    259    263    277    260    264    266    262
#.iScn. 2                                                .
#.STPi. 0.04                                                .
#.PSIi. 15                                                .
#.FETA. -1                                                                   .
143.000    270    256    266    250    220    251    272    264    248    273
143.400    231    251    271    267    268    256    257    245    269    245
143.800    254    271    241    273    238    273    275    289    265    263
144.200    250    241    279    261    265    252    318    242    303    250
144.600    261    247    254    278    280    276    248    263    278    257
145.000    255    259    273    220    284    263    256    285    301    280
145.400    244    262    240    234    275    260    263    278    241    268
145.800    259    261    266    253    307    266    252    229    263    246
146.200    236    264    295    273    294    269    274    253    266    269
146.600    279    279    208    267    249    292    249    260    247    261
147.000    280    265    225    279    311    296    255    256    276    281
147.400    306    287    293    268    264    296    272    268    301    260
147.800    284    313    268    292    253    311    266    308    305    278
148.200    311    292    294    264    267    280    280    312    267    300
148.600    280    277    264    253    286    299    262    291    289    274
149.000    281    285    281    291    287    298    302    279    302    311
149.400    307    290    285    276    298    305    282    296    292    296
149.800    313    274    287    308    292    338    299    305    308    292
150.200    310    282    310    334    277    280    332    338    274    303
150.600    320    308    333    310    319    322    314    304    311    323
151.000    321    327    325    346    319    348    353    322    347    357
151.400    381    370    343    340    346    375    365    349    362    347
151.800    388    414    362    360    411    402    387    408    413    383
152.200    405    434    398    429    436    449    496    505    495    521
152.600    538    499    534    536    527    527    530    570    566    545
153.000    564    619    584    624    635    603    624    657    646    658
153.400    697    680    701    709    737    708    741    718    717    703
153.800    697    704    748    781    766    809    713    723    711    748
154.200    778    752    770    713    759    745    751    789    744    786
154.600    771    805    764    773    688    727    729    669    725    699
155.000    719    770    604    625    678    699    626    691    648    638
155.400    619    647    609    612    596    563    601    605    609    584
155.800    524    547    535    563    468    526    461    514    473    436
156.200    497    516    505    480    459    465    464    446    424    488
156.600    422    494    451    433    428    418    401    468    389    393
157.000    424    394    393    385    373    375    389    394    347    380
157.400    368    358    349    366    320    397    351    399    363    362
157.800    332    358    340    360    346    355    347    383    314    314
158.200    329    310    329    349    332    328    350    354    322    318
158.600    322    357    357    333    307    300    307    301    337    284
159.000    280    291    330    324    300    304    305    335    326    323
159.400    303    291    305    312    279    312    305    255    266    301
159.800    324    298    268    307    292    275    282    263    299    293
160.200    316    307    314    318    307    332    321    330    264    303
160.600    287    262    301    300    285    312    298    318    265    283
161.000    272    286    290    281    276    267    307    279    271    271
161.400    310    307    276    276    257    258    297    287    248    281
161.800    274    311    325    261    279    259    279    307    254    277
162.200    289    300    300    285    290    293    269    293    290    252
162.600    274    281    250    302    285    304    288    250    288    262
163.000    266    262    257    292    283    272    290    279    252    291
163.400    275    270    285    260    286    266    266    288    272    292
163.800    259    289    262    267    287    276    273    289    285    296
164.200    274    276    294    283    265    264    272    255    239    256
164.600    303    261    269    258    266    277    261    284    284    276
165.000    247    266    298    279    244    254    301    296    285    272
165.400    263    288    273    285    296    269    258    295    241    256
165.800    270    278    260    267    268    253    270    245    274    257
166.200    245    245    254    245    280    268    275    268    258    251
166.600    261    276    235    250    230    273    267    247    236    272
#.iScn. 3                                                .
#.STPi. 0.04                                                .
#.PSIi. 30                                                .
#.FETA. -1                                                                   .
143.000    243    278    258    245    247    258    270    244    248    233
143.400    261    235    280    257    262    268    278    280    237    299
143.800    282    263    266    231    272    255    282    271    279    251
144.200    283    270    252    256    270    269    272    250    251    303
144.600    259    265    280    254    263    243    250    265    288    257
145.000    263    251    238    283    251    230    259    248    293    293
145.400    223    272    253    264    277    262    273    239    268    260
145.800    242    238    284    266    252    265    266    247    244    223
146.200    270    274    257    265    268    247    270    269    270    253
146.600    254    267    256    277    264    284    269    290    259    293
147.000    251    258    276    261    259    252    257    258    247    268
147.400    259    278    231    278    276    283    295    281    304    285
147.800    279    281    283    287    310    300    249    265    285    264
148.200    290    270    287    279    276    265    295    277    279    281
148.600    275    287    294    279    279    276    263    293    279    288
149.000    287    287    279    290    281    274    306    280    285    287
149.400    288    282    276    293    278    283    303    306    290    275
149.800    331    298    311    327    299    314    296    311    275    329
150.200    282    287    285    310    325    313    307    315    301    298
150.600    294    316    286    321    288    325    339    316    318    314
151.000    338    331    345    329    316    320    328    326    333    338
151.400    366    375    380    337    369    349    334    358    386    329
151.800    360    345    341    364    348    386    367    363    404    361
152.200    359    403    383    378    386    380    426    462    485    430
152.600    472    436    456    438    479    479    481    492    495    477
153.000    548    511    540    567    537    548    538    574    608    611
153.400    566    580    625    662    651    701    633    609    702    656
153.800    623    625    664    709    663    746    691    684    697    697
154.200    745    763    722    748    678    723    708    648    705    725
154.600    672    733    694    719    733    710    678    706    747    719
155.000    705    671    715    649    690    673    662    621    653    647
155.400    651    661    666    624    602    604    629    573    672    584
155.800    522    603    531    565    526    493    558    535    531    542
156.200    508    531    531    514    506    435    484    469    474    516
156.600    450    450    510    432    440    434    454    506    404    448
157.000    405    415    429    419    419    410    397    403    388    373
157.400    376    357    397    401    396    382    387    425    407    359
157.800    371    366    346    364    363    370    384    353    331    333
158.200    379    340    370    360    300    377    358    333    330    324
158.600    339    356    318    367    316    338    355    286    335    348
159.000    336    300    304    283    295    315    334    335    312    297
159.400    265    334    313    334    316    339    303    299    263    284
159.800    277    281    330    324    319    294    294    298    309    299
160.200    293    273    241    281    281    302    277    324    305    272
160.600    272    302    269    270    275    288    299    313    289    294
161.000    286    308    275    285    274    316    267    328    303    315
161.400    280    245    266    301    269    294    262    294    286    295
161.800    259    290    280    282    260    257    280    272    238    290
162.200    274    267    288    296    272    271    284    277    274    271
162.600    283    272    261    310    280    295    288    275    290    268
163.000    270    293    269    280    260    286    270    303    263    283
163.400    272    267    267    299    278    290    266    265    264    282
163.800    263    244    252    277    281    274    305    302    289    243
164.200    271    294    255    277    264    280    313    293    276    256
164.600    272    270    235    256    286    253    294    262    262    277
165.000    278    282    279    287    268    271    260    234    269    267
165.400    248    266    293    280    288    298    244    260    256    283
165.800    276    264    275    270    288    242    254    254    254    269
166.200    261    251    250    277    278    280    266    281    249    285
166.600    276    252    257    252    278    229    232    239    270    239
#.iScn. 4                                                .
#.STPi. 0.04                                                .
#.PSIi. 45                                                .
#.FETA. -1                                                                   .
143.000    271    251    278    255    292    267    235    252    247    256
143.400    244    269    262    267    246    279    255    256    281    227
143.800    262    266    264    257    249    234    256    273    257    236
144.200    254    254    266    257    276    269    240    275    287    259
144.600    248    284    263    248    268    263    253    279    225    281
145.000    245    233    251    264    272    228    265    264    261    276
145.400    246    280    269    265    286    278    273    276    260    245
145.800    245    268    273    265    258    308    252    274    243    270
146.200    277    229    289    254    243    261    237    273    271    239
146.600    269    290    230    255    239    253    266    276    259    256
147.000    273    273    273    273    273    280    274    262    246    281
147.400    293    265    258    261    281    261    258    301    293    268
147.800    293    265    299    295    301    302    296    293    297    275
148.200    267    290    267    278    290    274    280    290    303    284
148.600    265    279    270    262    273    265    303    293    280    267
149.000    292    303    285    289    261    303    277    308    310    293
149.400    297    304    286    319    293    299    272    274    276    276
149.800    337    307    320    322    281    269    288    298    264    302
150.200    292    274    276    298    292    298    328    321    333    331
150.600    328    293    297    295    301    318    354    289    295    297
151.000    316    296    314    316    283    322    313    273    341    335
151.400    317    355    343    331    303    341    347    327    343    340
151.800    335    338    335    342    340    372    330    358    379    380
152.200    348    372    386    345    417    357    423    394    375    389
152.600    431    436    431    419    445    498    453    472    466    477
153.000    487    517    452    495    480    515    497    540    479    495
153.400    529    555    540    493    540    551    552    612    612    641
153.800    603    614    619    607    614    664    579    617    634    678
154.200    624    678    700    659    653    742    618    623    665    722
154.600    713    711    768    720    686    690    724    740    662    701
155.000    734    656    642    612    654    656    716    669    726    703
155.400    681    653    684    687    647    672    696    627    674    635
155.800    609    662    577    655    597    578    597    623    588    581
156.200    535    528    583    550    563    516    515    556    446    500
156.600    465    531    509    487    509    485    466    459    470    493
157.000    476    456    405    397    436    400    418    427    435    425
157.400    403    423    449    406    369    376    379    433    375    431
157.800    387    396    376    396    386    388    388    338    393    347
158.200    350    354    382    345    367    389    357    349    385    338
158.600    357    357    369    357    342    368    356    328    322    353
159.000    293    332    292    319    341    352    308    369    306    300
159.400    357    334    318    267    344    322    329    303    312    293
159.800    298    346    309    313    343    304    305    309    285    292
160.200    305    281    277    336    285    318    312    350    332    265
160.600    304    277    317    318    287    294    256    300    315    284
161.000    279    285    291    304    279    303    270    291    284    278
161.400    303    261    278    282    299    307    287    261    273    288
161.800    306    273    283    262    270    252    263    290    302    256
162.200    258    259    280    281    286    268    304    255    262    272
162.600    279    260    290    312    288    284    307    292    259    268
163.000    288    288    253    287    290    291    307    277    273    252
163.400    286    292    300    276    278    274    282    291    269    274
163.800    290    268    257    284    268    272    270    272    266    273
164.200    248    253    267    287    252    296    284    293    261    285
164.600    264    239    262    261    262    286    269    259    258    289
165.000    272    254    282    292    296    233    256    279    257    283
165.400    264    258    290    268    287    257    266    287    280    281
165.800    288    235    270    254    258    253    244    263    235    281
166.200    280    275    269    268    246    246    269    250    259    257
166.600    232    264    299    226    253    273    272    270    259    269
#.EOFm.                                                                      .
