#.DATE. 2018-06-23 00:02:45                                                  .
#.GTkV. 25                                                                   .
#.GCmA. 30                                                                   .
#.WLa1. 2.2907                                                              .
#.ANFG. 141                                                                  .
#.ENDE. 165                                                                  .
#.STEP. 0.02                                                                 .
#.t/St. 1                                                                 .
#.nScn. 2                                                             .
#.MaxI. 2887                                                .
#.    .                                                                      .
#.iScn. 1                                                .
#.STPi. 0.02                                                .
#.PSIi. 0                                                .
#.FETA. -1                                                                   .
141.000    204    196    221    260    306    347    353    338    288    233
141.200    223    231    241    243    205    164    193    241    247    237
141.400    227    219    219    222    217    202    154    109    152    224
141.600    263    287    301    307    298    287    301    313    263    207
141.800    241    303    322    314    257    188    153    133    123    128
142.000    188    261    294    305    293    268    233    204    228    269
142.200    283    286    281    268    232    190    171    168    200    236
142.400    222    205    271    347    298    212    183    184    225    269
142.600    255    221    207    202    202    202    192    183    202    230
142.800    246    259    277    289    261    229    256    285    209    114
143.000    135    194    203    199    223    259    290    308    266    215
143.200    236    274    255    218    208    204    182    159    174    206
143.400    246    288    320    335    282    223    267    338    336    309
143.600    307    313    312    300    243    187    219    272    245    199
143.800    211    244    257    262    264    261    243    229    265    314
144.000    330    327    304    273    245    228    256    296    303    307
144.200    361    412    353    264    252    267    272    273    281    293
144.400    315    336    335    319    270    222    244    282    263    224
144.600    197    179    181    190    199    214    262    306    262    190
144.800    158    158    238    330    320    284    318    368    356    325
145.000    314    314    322    322    259    196    258    355    377    370
145.200    371    371    346    313    283    267    311    373    405    412
145.400    354    279    248    234    223    215    214    224    279    335
145.600    311    258    222    199    212    241    274    304    314    310
145.800    281    258    318    393    375    327    317    327    357    386
146.000    372    340    306    289    354    427    375    287    274    292
146.200    322    349    344    329    331    336    329    321    333    353
146.400    368    380    384    376    328    278    296    341    381    407
146.600    375    328    328    339    316    285    274    276    295    324
146.800    373    420    422    408    404    410    449    495    508    495
147.000    420    338    345    370    315    244    256    303    357    395
147.200    346    269    227    212    261    326    349    354    351    348
147.400    360    368    326    278    305    346    310    269    355    463
147.600    434    358    322    306    309    316    313    313    351    391
147.800    358    303    284    290    341    403    425    422    374    321
148.000    335    371    390    395    360    317    311    325    372    418
148.200    393    347    341    350    359    366    366    361    341    326
148.400    366    414    394    357    378    408    368    317    346    401
148.600    423    426    404    378    384    400    411    422    446    463
148.800    413    353    373    421    449    452    365    258    223    228
149.000    288    361    389    396    388    363    286    208    230    290
149.200    338    372    351    318    332    356    342    317    322    338
149.400    352    366    382    399    419    432    402    365    381    405
149.600    361    308    353    428    453    448    390    320    298    313
149.800    415    522    486    407    406    421    361    291    319    375
150.000    371    358    415    477    421    334    332    362    384    407
150.200    460    523    579    616    568    494    462    451    463    487
150.400    518    555    607    653    639    604    587    584    618    645
150.600    569    467    450    464    468    470    480    491    487    496
150.800    602    720    711    650    584    533    566    622    631    626
151.000    648    673    666    649    644    636    591    558    657    782
151.200    774    723    727    745    728    710    762    821    777    706
151.400    713    746    754    758    792    826    798    762    801    847
151.600    770    665    670    716    754    785    802    810    793    785
151.800    869    975   1013   1018    999    969    924    886    910    950
152.000    948    942    996   1059   1047   1013   1021   1044   1062   1077
152.200   1089   1099   1114   1142   1228   1303   1205   1078   1156   1296
152.400   1338   1334   1300   1267   1300   1364   1448   1522   1503   1437
152.600   1324   1227   1305   1429   1430   1397   1439   1511   1583   1649
152.800   1687   1701   1660   1613   1654   1728   1792   1850   1895   1921
153.000   1877   1816   1812   1827   1827   1842   1963   2103   2120   2098
153.200   2126   2157   2106   2044   2089   2187   2335   2468   2428   2336
153.400   2337   2366   2347   2322   2367   2442   2532   2612   2615   2607
153.600   2698   2777   2601   2379   2437   2589   2656   2666   2564   2450
153.800   2498   2601   2659   2688   2664   2628   2642   2669   2661   2646
154.000   2669   2716   2808   2887   2813   2694   2660   2665   2697   2716
154.200   2623   2515   2557   2637   2607   2547   2555   2585   2582   2578
154.400   2634   2707   2748   2748   2607   2445   2468   2548   2551   2533
154.600   2564   2615   2672   2694   2521   2317   2345   2444   2441   2386
154.800   2273   2158   2148   2179   2205   2225   2227   2215   2173   2130
155.000   2147   2190   2250   2281   2140   1963   1951   1986   1923   1833
155.200   1806   1814   1872   1925   1851   1747   1743   1779   1812   1827
155.400   1757   1676   1708   1768   1736   1680   1683   1691   1612   1518
155.600   1521   1574   1683   1768   1618   1428   1503   1649   1613   1519
155.800   1495   1486   1411   1330   1359   1411   1363   1286   1267   1268
156.000   1253   1237   1256   1279   1259   1226   1223   1229   1225   1223
156.200   1249   1267   1182   1071   1035   1041   1107   1173   1119   1035
156.400   1044   1073   1019    945    944    974   1013   1036    969    887
156.600    913    960    889    791    796    840    872    889    846    793
156.800    805    842    871    879    800    704    695    715    708    695
157.000    707    727    739    755    813    871    850    798    743    701
157.200    729    782    820    841    810    765    755    753    721    677
157.400    628    593    635    691    667    625    656    709    722    706
157.600    618    520    507    528    542    551    545    542    583    642
157.800    711    763    715    637    609    597    568    543    568    599
158.000    557    499    514    553    562    564    583    602    587    561
158.200    544    530    519    512    522    534    529    523    542    567
158.400    564    548    527    504    488    473    454    438    439    443
158.600    430    430    525    631    597    519    501    509    524    532
158.800    490    444    481    538    532    500    468    443    453    476
159.000    497    506    459    404    424    463    447    406    355    321
159.200    395    494    498    469    465    471    475    469    412    349
159.400    364    398    372    336    367    416    421    409    397    388
159.600    391    398    403    409    425    435    394    336    299    285
159.800    336    410    461    488    441    379    386    415    420    410
160.000    365    317    321    346    379    413    437    447    407    351
160.200    315    292    293    307    346    389    407    410    390    362
160.400    347    337    325    317    329    334    259    186    275    399
160.600    374    306    315    360    432    499    494    461    431    407
160.800    400    403    423    436    384    317    308    326    364    397
161.000    363    314    315    341    385    432    454    458    417    363
161.200    327    305    308    325    359    389    371    336    317    309
161.400    320    341    382    417    387    335    306    293    315    345
161.600    342    327    317    320    381    446    415    351    318    300
161.800    292    292    307    329    348    360    345    325    337    344
162.000    268    181    212    289    361    419    419    389    329    267
162.200    258    282    365    454    458    431    424    421    406    385
162.400    354    329    351    380    354    310    288    281    312    338
162.600    264    173    197    255    251    230    243    265    268    264
162.800    259    267    348    440    440    406    382    370    398    424
163.000    359    266    221    207    251    309    312    302    330    367
163.200    369    348    282    223    286    371    321    235    242    276
163.400    255    210    152    113    201    319    342    328    322    315
163.600    285    248    224    220    284    354    314    243    234    259
163.800    329    398    370    312    292    291    300    307    279    240
164.000    213    198    218    247    252    251    262    282    324    363
164.200    350    314    265    228    279    350    346    317    311    311
164.400    286    268    327    392    335    243    219    223    222    219
164.600    211    200    186    188    278    378    350    282    274    283
164.800    259    228    233    250    247    241    252    272    305    334
#.iScn. 2                                                .
#.STPi. 0.02                                                .
#.PSIi. 24                                                .
#.FETA. -1                                                                   .
141.000    258    245    254    264    234    194    184    179    141    105
141.200    150    210    177    124    154    203    174    122    113    126
141.400    162    199    191    168    160    165    200    231    174    102
141.600    135    206    262    302    295    274    278    282    233    175
141.800    175    200    228    247    211    165    179    212    220    214
142.000    185    146    105     80    140    215    190    140    162    203
142.200    197    174    158    157    219    293    297    268    216    168
142.400    190    228    208    178    223    283    275    248    269    297
142.600    265    220    227    257    302    330    246    138    130    161
142.800    184    201    208    208    200    189    184    182    175    170
143.000    182    195    181    165    187    233    314    386    335    243
143.200    196    175    199    232    222    197    188    188    195    206
143.400    225    247    266    264    162     57    137    272    315    318
143.600    306    283    235    190    210    240    185    119    161    233
143.800    234    213    230    256    252    237    229    220    196    173
144.000    183    201    186    159    138    126    144    167    154    135
144.200    166    209    217    209    194    174    139    104     91     86
144.400     77     79    136    209    245    263    258    239    197    148
144.600    114    100    156    225    224    194    166    140    127    123
144.800    141    168    202    229    211    189    238    302    296    264
145.000    239    215    181    147    131    124    124    136    201    276
145.200    293    282    249    216    225    257    317    368    316    236
145.400    229    250    263    277    311    346    346    324    264    204
145.600    229    277    275    263    303    344    290    213    211    233
145.800    230    214    190    171    200    248    298    334    298    244
146.000    238    249    242    235    265    297    274    227    173    130
146.200    152    206    287    354    297    211    222    267    287    296
146.400    300    298    276    244    200    155    122    105    146    202
146.600    215    220    275    334    318    278    268    273    293    316
146.800    322    314    264    204    174    158    151    158    223    303
147.000    345    364    346    306    228    151    162    208    253    290
147.200    295    297    349    409    407    383    364    349    341    337
147.400    343    341    282    220    257    323    339    329    294    253
147.600    237    235    253    272    259    234    209    194    222    261
147.800    265    257    259    266    278    291    298    298    283    265
148.000    270    280    267    249    249    270    356    441    391    307
148.200    320    354    299    223    214    230    239    242    225    215
148.400    275    351    364    342    270    189    166    173    212    257
148.600    272    273    269    267    287    300    243    174    193    248
148.800    303    349    345    321    297    276    268    274    320    368
149.000    343    299    308    330    309    276    268    270    274    279
149.200    290    302    299    289    271    260    306    359    340    298
149.400    286    288    297    311    336    364    382    381    300    212
149.600    246    324    382    423    421    396    349    305    318    358
149.800    418    468    433    379    405    449    426    388    405    434
150.000    410    374    388    425    480    526    491    431    414    414
150.200    414    406    360    320    388    482    488    457    419    389
150.400    407    447    494    526    466    388    402    446    460    457
150.600    431    404    427    470    518    559    553    543    600    654
150.800    558    438    498    606    597    544    508    486    502    529
151.000    528    519    526    546    596    637    570    479    483    519
151.200    523    519    533    561    618    667    621    550    547    573
151.400    611    647    653    646    637    640    707    782    773    728
151.600    663    603    601    634    721    804    767    697    710    761
151.800    837    888    763    602    621    701    729    733    719    699
152.000    691    695    739    783    752    702    712    746    783    831
152.200    926   1015    982    912    897    907    929    961   1023   1079
152.400   1047    992   1007   1039   1021    997   1041   1097   1073   1039
152.600   1112   1216   1265   1277   1217   1133   1067   1044   1191   1369
152.800   1359   1286   1281   1324   1471   1610   1507   1342   1352   1430
153.000   1496   1555   1599   1640   1691   1736   1724   1685   1616   1559
153.200   1615   1707   1749   1775   1816   1848   1797   1727   1732   1781
153.400   1905   2034   2040   1995   1946   1917   1992   2099   2162   2195
153.600   2163   2105   2042   2005   2101   2239   2314   2344   2272   2183
153.800   2211   2280   2324   2347   2318   2287   2346   2417   2360   2260
154.000   2200   2173   2234   2332   2440   2534   2535   2509   2538   2577
154.200   2559   2521   2493   2463   2405   2361   2447   2548   2466   2340
154.400   2367   2447   2485   2493   2426   2360   2442   2562   2567   2526
154.600   2482   2450   2491   2550   2553   2533   2516   2496   2453   2398
154.800   2328   2261   2240   2238   2233   2229   2235   2240   2220   2187
155.000   2139   2095   2099   2117   2102   2069   2014   1964   1986   2014
155.200   1935   1840   1875   1944   1915   1846   1777   1731   1805   1902
155.400   1876   1812   1813   1822   1748   1667   1724   1820   1834   1826
155.600   1863   1898   1830   1737   1732   1765   1808   1824   1680   1507
155.800   1506   1558   1533   1487   1489   1506   1493   1479   1515   1555
156.000   1515   1446   1389   1345   1341   1347   1328   1297   1261   1227
156.200   1216   1214   1212   1196   1107   1007    995   1019   1041   1068
156.400   1120   1161   1097   1009   1008   1034   1023   1002   1005   1013
156.600   1001    973    906    842    865    915    928    922    891    867
156.800    925    992    944    852    768    711    767    857    884    887
157.000    895    900    878    837    751    669    697    752    719    660
157.200    649    661    691    722    715    698    709    719    668    609
157.400    638    688    668    628    628    643    651    654    642    622
157.600    591    560    554    567    625    682    644    571    514    476
157.800    495    535    568    589    560    505    415    340    412    520
158.000    521    488    497    527    577    623    609    566    496    437
158.200    483    560    579    572    551    525    498    468    431    407
158.400    460    526    505    453    421    405    429    466    490    502
158.600    486    460    444    429    399    367    358    371    447    530
158.800    513    464    447    445    453    461    449    427    398    373
159.000    380    390    350    307    352    418    411    381    384    395
159.200    383    370    402    437    397    339    339    360    363    364
159.400    390    419    416    405    419    428    362    286    312    368
159.600    374    368    405    452    459    442    377    307    312    345
159.800    371    392    398    390    344    294    307    340    348    346
160.000    343    345    377    403    342    274    346    442    378    267
160.200    241    250    262    268    231    199    275    367    319    238
160.400    274    346    366    360    324    274    214    170    224    310
160.600    355    370    323    271    321    399    415    409    413    409
160.800    343    274    309    375    392    379    308    229    223    251
161.000    301    345    321    281    301    337    333    313    294    278
161.200    269    270    308    339    266    176    201    264    279    281
161.400    316    359    379    376    310    237    259    312    330    327
161.600    294    259    277    306    277    232    225    236    259    280
161.800    269    244    211    185    212    256    280    292    281    266
162.000    279    304    332    356    350    333    316    300    282    263
162.200    239    220    233    252    234    219    286    358    291    194
162.400    217    278    286    276    286    301    303    297    281    258
162.600    220    189    228    271    197     98    106    157    213    260
162.800    254    233    250    274    256    230    243    269    288    295
163.000    257    209    199    215    281    345    299    227    240    278
163.200    264    228    181    140    155    191    212    234    284    334
163.400    319    290    314    350    331    281    181     81     79    120
163.600    175    223    216    190    186    192    211    237    271    299
163.800    272    233    241    263    267    254    196    130    117    128
164.000    151    179    208    233    233    224    215    208    203    204
164.200    235    264    231    185    198    227    221    201    181    172
164.400    219    281    298    291    246    195    190    196    162    122
164.600    132    157    154    141    136    138    157    190    261    321
164.800    251    152    165    216    235    236    209    173    147    127
#.EOFm.                                                                      .
