#.DATE. 2018-06-23 12:38:28                                                  .
#.GTkV. 25                                                                   .
#.GCmA. 30                                                                   .
#.WLa1. 2.2907                                                              .
#.ANFG. 138                                                                  .
#.ENDE. 162                                                                  .
#.STEP. 0.02                                                                 .
#.t/St. 1                                                                 .
#.nScn. 2                                                             .
#.MaxI. 2819                                                .
#.    .                                                                      .
#.iScn. 1                                                .
#.STPi. 0.02                                                .
#.PSIi. 0                                                .
#.FETA. -1                                                                   .
138.000    282    319    306    271    231    195    192    194    155    121
138.200    198    303    323    306    271    238    252    280    289    280
138.400    213    143    175    236    245    237    251    265    237    195
138.600    165    144    150    166    182    200    229    260    275    270
138.800    200    118    109    131    160    197    260    321    316    281
139.000    236    187    141    109    134    175    181    180    217    259
139.200    249    217    174    135    141    164    182    199    224    247
139.400    247    239    241    237    181    120    131    164    163    164
139.600    239    319    280    215    254    315    281    222    233    262
139.800    246    214    192    183    221    264    242    201    198    206
140.000    194    182    210    243    221    184    184    197    205    221
140.200    287    358    352    315    275    239    235    237    212    173
140.400    119     84    174    287    263    199    200    223    218    199
140.600    170    153    224    323    382    408    342    255    243    253
140.800    223    187    200    225    216    209    274    346    310    236
141.000    192    170    201    239    207    151    117    110    201    299
141.200    236    135    170    247    259    254    291    334    320    283
141.400    243    212    236    280    316    341    336    314    274    233
141.600    227    244    307    376    379    354    324    288    233    180
141.800    167    174    193    221    269    318    332    325    288    250
142.000    275    313    288    246    246    255    232    202    204    210
142.200    176    138    162    205    228    237    223    205    217    244
142.400    289    332    327    305    293    287    292    296    267    228
142.600    206    193    195    210    261    306    245    169    233    334
142.800    341    318    330    338    253    158    198    277    279    258
143.000    272    295    293    283    283    285    279    268    255    248
143.200    276    312    313    308    336    363    314    251    278    329
143.400    323    297    283    273    265    265    310    353    304    233
143.600    232    259    281    300    311    322    348    376    389    395
143.800    399    393    335    278    325    390    340    260    263    293
144.000    295    285    273    271    316    366    351    313    298    294
144.200    297    313    382    461    482    463    361    249    260    313
144.400    331    336    343    345    317    282    272    267    238    210
144.600    229    264    287    299    281    264    307    360    340    309
144.800    375    449    378    269    265    301    330    347    319    279
145.000    266    265    271    277    278    279    297    313    289    258
145.200    277    313    339    349    302    245    250    274    270    254
145.400    243    234    233    237    251    265    256    241    239    255
145.600    328    404    385    328    274    233    244    274    294    308
145.800    313    310    282    257    294    343    325    288    286    305
146.000    361    413    373    312    323    347    292    220    217    242
146.200    277    308    302    294    346    406    388    341    309    284
146.400    266    265    339    420    386    311    264    243    294    359
146.600    350    323    351    388    357    310    318    337    301    261
146.800    313    384    375    339    331    336    346    357    363    362
147.000    338    308    298    291    259    231    271    327    321    292
147.200    268    254    279    316    339    353    346    337    363    393
147.400    376    348    358    384    410    424    375    316    334    375
147.600    384    381    380    383    406    431    429    420    424    427
147.800    394    354    357    372    359    340    347    362    361    361
148.000    402    440    375    295    347    435    444    423    404    395
148.200    434    474    419    342    338    368    415    455    423    366
148.400    324    305    371    451    433    386    392    416    420    416
148.600    414    410    398    381    364    354    384    424    432    419
148.800    363    306    332    386    410    411    354    292    320    377
149.000    399    398    353    316    399    498    429    318    333    391
149.200    408    403    373    341    349    371    386    390    356    317
149.400    331    367    400    426    427    409    354    296    295    325
149.600    395    471    500    500    450    389    372    376    403    433
149.800    433    424    432    447    470    489    473    453    480    518
150.000    516    499    487    473    442    415    442    478    459    434
150.200    492    567    554    507    470    442    444    460    486    512
150.400    521    527    552    588    649    694    617    511    505    531
150.600    516    487    474    470    475    485    508    529    512    490
150.800    518    553    523    472    447    436    437    452    514    585
151.000    612    620    617    599    534    462    452    470    508    555
151.200    610    662    684    690    675    655    655    660    655    649
151.400    661    674    652    620    610    613    641    677    705    730
151.600    765    789    745    689    716    765    757    723    666    625
151.800    711    831    871    880    894    911    936    963    987   1002
152.000    982    964   1028   1095   1022    924    988   1081   1004    881
152.200    871    912    980   1047   1062   1072   1159   1253   1229   1167
152.400   1160   1182   1244   1302   1258   1200   1269   1371   1388   1365
152.600   1317   1276   1322   1401   1475   1542   1589   1631   1693   1737
152.800   1653   1545   1582   1675   1763   1843   1896   1924   1882   1826
153.000   1837   1858   1794   1713   1720   1774   1887   1991   1940   1869
153.200   2013   2198   2156   2057   2125   2243   2284   2304   2369   2431
153.400   2381   2297   2260   2251   2285   2331   2347   2368   2476   2577
153.600   2475   2313   2261   2281   2442   2626   2640   2585   2522   2480
153.800   2558   2673   2731   2747   2665   2581   2687   2819   2701   2521
154.000   2531   2595   2549   2488   2574   2702   2750   2765   2778   2781
154.200   2739   2672   2570   2467   2427   2429   2506   2592   2570   2520
154.400   2553   2583   2432   2250   2279   2383   2434   2456   2436   2403
154.600   2385   2370   2340   2304   2265   2244   2318   2385   2227   2040
154.800   2159   2357   2335   2249   2283   2351   2346   2322   2351   2385
155.000   2334   2256   2208   2168   2110   2050   2023   2005   1967   1920
155.200   1863   1811   1796   1785   1724   1654   1644   1654   1644   1635
155.400   1669   1710   1693   1659   1658   1669   1672   1656   1565   1467
155.600   1491   1534   1435   1311   1344   1427   1448   1442   1424   1402
155.800   1375   1356   1379   1403   1352   1273   1207   1156   1152   1155
156.000   1103   1061   1182   1332   1299   1206   1176   1173   1177   1173
156.200   1117   1043    981    934    945    976    991    983    900    817
156.400    889   1009   1059   1067   1007    937    958    996    931    852
156.600    910    998    966    885    800    728    721    741    763    785
156.800    809    823    792    748    732    718    652    594    675    787
157.000    779    732    735    748    716    664    602    555    603    669
157.200    633    578    625    695    678    628    590    556    525    503
157.400    520    550    570    577    540    496    497    528    612    698
157.600    681    615    507    405    415    474    558    631    597    535
157.800    540    565    556    541    561    590    594    591    600    605
158.000    568    524    529    551    564    566    527    474    439    422
158.200    458    510    531    532    498    454    430    420    440    460
158.400    425    381    407    450    436    415    467    537    547    525
158.600    458    388    388    422    486    554    584    590    559    522
158.800    527    532    452    359    369    413    417    416    468    520
159.000    461    373    368    391    387    368    321    285    361    468
159.200    515    530    512    479    442    409    398    397    399    399
159.400    379    360    388    420    380    336    410    508    485    416
159.600    362    321    315    330    381    427    368    286    294    330
159.800    328    318    350    394    423    437    409    372    367    375
160.000    386    393    377    355    356    363    352    337    339    346
160.200    351    355    357    368    421    470    414    331    326    351
160.400    370    378    351    314    300    295    287    286    332    382
160.600    367    326    288    255    239    241    305    375    355    300
160.800    255    223    241    283    347    402    372    316    303    307
161.000    308    319    390    462    426    351    302    276    310    361
161.200    372    362    322    279    278    294    310    331    377    418
161.400    384    326    299    278    222    170    207    270    291    296
161.600    304    311    300    283    273    261    229    198    212    238
161.800    235    239    332    436    421    360    299    250    253    271
#.iScn. 2                                                .
#.STPi. 0.02                                                .
#.PSIi. 24                                                .
#.FETA. -1                                                                   .
138.000    141    141    170    200    185    157    157    166    158    148
138.200    157    169    166    158    162    165    148    135    185    244
138.400    220    174    186    210    171    113     88     82    104    137
138.600    165    188    193    195    219    246    253    243    196    149
138.800    174    215    189    149    169    200    168    125    159    213
139.000    217    198    165    135    140    166    224    276    240    183
139.200    204    243    214    169    179    209    230    241    216    184
139.400    195    226    270    301    236    151    164    201    160    105
139.600    138    187    139     75    116    187    193    181    206    233
139.800    195    150    200    273    272    239    188    144    168    212
140.000    218    212    224    239    226    204    195    193    201    205
140.200    169    136    195    272    255    217    258    309    256    180
140.400    194    234    221    198    232    276    261    232    248    271
140.600    238    187    161    157    213    278    271    230    166    103
140.800     97    113    129    147    180    212    214    204    192    178
141.000    152    130    147    179    216    246    238    217    211    214
141.200    232    250    239    212    155    106    149    213    200    167
141.400    191    235    271    290    245    181    146    133    180    240
141.600    250    243    254    269    268    257    234    210    204    204
141.800    189    169    151    137    141    161    223    285    267    220
142.000    191    181    226    280    264    235    279    336    305    253
142.200    269    300    268    216    196    190    197    217    275    334
142.400    313    275    307    359    371    361    318    271    269    293
142.600    360    425    395    334    305    286    253    221    219    231
142.800    248    269    292    307    278    237    218    211    217    228
143.000    231    226    201    183    248    315    226     97     88    130
143.200    192    253    267    259    233    199    163    139    173    224
143.400    235    232    231    234    255    278    274    264    273    290
143.600    313    338    353    360    339    312    313    328    356    372
143.800    298    206    203    222    179    130    174    249    286    301
144.000    281    253    255    261    229    197    248    320    329    315
144.200    314    311    270    220    201    203    244    288    273    244
144.400    257    285    305    319    328    330    310    278    223    172
144.600    191    234    262    275    246    207    200    212    252    296
144.800    297    279    252    231    250    280    277    266    285    304
145.000    266    224    272    343    351    336    336    339    329    309
145.200    274    238    234    240    237    234    245    253    222    190
145.400    227    285    314    324    291    247    236    240    253    264
145.600    253    247    309    382    369    325    301    291    316    343
145.800    318    281    286    303    293    278    286    310    359    405
146.000    383    333    285    244    243    250    224    198    247    317
146.200    345    353    339    322    329    339    322    294    268    248
146.400    258    278    288    289    267    247    292    351    358    349
146.600    360    371    337    296    310    338    328    304    293    288
146.800    285    285    295    304    291    269    244    227    257    299
147.000    314    324    361    395    364    301    213    136    164    230
147.200    276    312    341    364    369    362    328    297    328    364
147.400    305    228    258    319    328    319    325    335    337    337
147.600    345    353    338    321    344    373    355    323    311    317
147.800    370    427    412    377    385    399    350    291    307    344
148.000    338    315    302    298    324    358    375    384    383    375
148.200    345    317    334    362    347    333    410    496    437    339
148.400    328    350    365    382    424    460    414    349    348    374
148.600    415    451    435    406    414    435    451    453    397    332
148.800    345    381    375    347    288    234    270    338    389    418
149.000    372    315    353    412    386    337    343    373    410    438
149.200    409    370    394    430    396    339    306    290    314    355
149.400    404    442    410    357    337    345    423    500    429    316
149.600    291    304    327    344    304    261    308    382    406    415
149.800    449    489    507    514    501    486    496    508    477    439
150.000    451    477    478    464    428    392    394    412    429    452
150.200    510    562    519    448    434    439    434    424    417    416
150.400    437    464    478    476    429    373    369    384    399    416
150.600    446    471    443    398    381    376    376    376    361    355
150.800    419    503    547    566    540    501    489    492    523    557
151.000    548    524    513    509    515    530    567    605    606    590
151.200    561    538    572    619    626    622    646    668    618    554
151.400    560    589    590    574    526    487    550    640    663    660
151.600    660    660    649    635    634    635    619    602    609    618
151.800    597    577    629    707    776    833    844    833    810    783
152.000    763    750    765    782    751    715    747    799    811    814
152.200    850    883    828    764    828    930    962    960    930    903
152.400    951   1009    965    894    890    909    911    913    942    976
152.600    980    986   1062   1149   1156   1136   1146   1162   1146   1133
152.800   1197   1278   1296   1285   1260   1233   1221   1227   1290   1366
153.000   1392   1390   1351   1303   1285   1303   1441   1606   1666   1685
153.200   1709   1735   1760   1767   1690   1606   1647   1737   1817   1875
153.400   1840   1783   1801   1846   1877   1890   1833   1777   1863   1984
153.600   2003   1981   1954   1940   1998   2077   2121   2150   2176   2188
153.800   2143   2085   2074   2083   2100   2130   2210   2286   2240   2156
154.000   2119   2113   2167   2232   2232   2202   2154   2118   2187   2280
154.200   2291   2285   2358   2440   2415   2348   2286   2239   2259   2294
154.400   2277   2235   2172   2137   2290   2478   2468   2385   2335   2295
154.600   2232   2163   2109   2081   2153   2240   2205   2118   2013   1934
154.800   2021   2156   2193   2187   2159   2132   2148   2177   2176   2176
155.000   2233   2293   2256   2166   2004   1851   1883   1977   2006   2002
155.200   1956   1893   1825   1767   1768   1778   1721   1655   1681   1731
155.400   1723   1691   1660   1650   1735   1837   1831   1763   1607   1451
155.600   1478   1571   1629   1655   1588   1488   1411   1362   1405   1465
155.800   1428   1377   1449   1537   1455   1317   1236   1189   1197   1221
156.000   1215   1203   1224   1259   1298   1318   1239   1135   1098   1107
156.200   1213   1324   1275   1165   1075   1009   1026   1057    992    914
156.400    966   1054   1063   1042   1025   1006    975    941    917    898
156.600    881    878    941   1017   1022    993    940    891    902    927
156.800    899    846    780    732    807    911    915    875    817    764
157.000    776    812    841    863    864    847    786    720    709    721
157.200    730    734    723    708    710    718    726    728    701    675
157.400    709    749    694    609    559    531    543    571    596    612
157.600    591    561    561    584    660    744    757    736    690    638
157.800    606    595    652    721    717    679    621    577    643    731
158.000    711    651    614    590    588    590    575    553    526    508
158.200    540    584    585    570    563    560    562    557    504    448
158.400    473    521    514    496    530    569    535    483    492    520
158.600    518    508    515    529    543    561    597    634    638    625
158.800    597    558    497    448    501    578    568    533    540    565
159.000    596    613    545    461    466    495    470    434    443    477
159.200    539    599    584    545    528    516    485    448    413    386
159.400    394    421    476    526    491    436    446    475    471    456
159.600    458    466    477    491    517    545    563    564    498    417
159.800    388    387    424    463    439    395    384    391    418    437
160.000    373    294    313    366    394    406    385    366    422    487
160.200    447    374    344    331    313    302    334    384    434    468
160.400    417    351    377    420    371    305    338    397    391    365
160.600    374    396    418    444    488    522    464    391    420    477
160.800    471    438    403    371    357    348    321    297    323    365
161.000    387    397    385    376    422    472    430    364    357    364
161.200    331    290    296    310    275    236    267    321    345    357
161.400    367    371    340    310    352    401    345    269    305    381
161.600    438    477    458    416    377    345    343    359    402    450
161.800    470    470    430    384    391    407    363    314    360    426
#.EOFm.                                                                      .
