#.DATE. 2018-06-23 12:55:20                                                  .
#.GTkV. 25                                                                   .
#.GCmA. 30                                                                   .
#.WLa1. 2.2907                                                              .
#.ANFG. 138                                                                  .
#.ENDE. 162                                                                  .
#.STEP. 0.02                                                                 .
#.t/St. 1                                                                 .
#.nScn. 2                                                             .
#.MaxI. 2994                                                .
#.    .                                                                      .
#.iScn. 1                                                .
#.STPi. 0.02                                                .
#.PSIi. 0                                                .
#.FETA. -1                                                                   .
138.000    297    269    281    306    318    323    323    310    245    183
138.200    241    324    287    218    226    251    213    162    179    217
138.400    227    232    272    323    357    371    312    235    214    223
138.600    267    310    278    237    300    386    382    346    330    320
138.800    300    277    259    251    288    334    342    321    235    150
139.000    205    290    252    182    202    243    214    177    245    334
139.200    316    268    277    306    320    324    313    295    275    269
139.400    333    400    342    253    261    301    314    317    325    327
139.600    286    237    231    245    269    283    229    167    205    268
139.800    259    214    134     68    141    251    276    269    277    282
140.000    242    193    192    216    267    321    338    333    288    234
140.200    212    213    271    336    331    291    219    154    182    245
140.400    293    331    349    360    373    376    324    272    333    415
140.600    374    289    232    199    230    274    258    226    239    268
140.800    295    313    288    249    223    216    272    344    361    350
141.000    301    246    236    245    264    278    250    221    265    320
141.200    280    222    261    325    321    298    323    361    369    364
141.400    354    337    293    247    238    239    215    189    205    236
141.600    265    288    283    278    331    393    383    344    295    250
141.800    240    242    232    227    267    312    289    248    250    268
142.000    274    275    268    255    230    209    228    255    237    207
142.200    205    215    222    232    264    300    316    329    372    416
142.400    413    393    382    377    388    409    442    469    441    392
142.600    348    320    364    425    434    419    389    359    359    373
142.800    395    408    353    294    352    439    446    419    389    356
143.000    319    285    266    259    277    303    317    320    285    252
143.200    306    382    403    403    413    415    359    282    223    188
143.400    240    319    366    391    368    334    342    359    346    328
143.600    353    388    387    365    318    265    239    230    257    300
143.800    343    375    349    305    294    304    353    403    383    344
144.000    351    368    339    306    353    414    390    345    365    407
144.200    427    436    427    407    368    328    318    321    324    326
144.400    315    309    358    423    466    485    426    342    290    263
144.600    306    358    322    270    319    399    428    422    347    263
144.800    264    295    298    293    303    312    287    265    318    392
145.000    414    419    439    451    393    323    330    361    355    345
145.200    387    430    380    308    316    351    361    362    368    369
145.400    340    297    249    210    229    269    296    313    307    296
145.600    313    333    311    287    332    392    393    369    335    302
145.800    289    288    302    318    314    305    313    330    362    386
146.000    342    279    266    282    350    422    415    387    406    426
146.200    358    272    279    325    379    434    469    487    453    406
146.400    394    391    360    327    342    365    328    279    285    306
146.600    289    264    275    303    340    380    420    445    395    331
146.800    352    403    441    458    400    328    336    372    389    391
147.000    350    301    299    312    311    309    327    346    329    309
147.200    352    406    390    350    332    328    356    388    380    361
147.400    370    382    356    320    314    320    329    342    365    381
147.600    334    285    352    448    453    422    397    377    366    363
147.800    386    413    400    378    388    408    421    425    394    361
148.000    383    422    438    443    445    438    401    370    436    518
148.200    493    436    434    455    479    497    474    431    373    324
148.400    350    403    446    477    471    446    393    341    349    389
148.600    469    543    510    449    460    487    450    394    367    357
148.800    377    398    369    328    332    362    434    503    480    427
149.000    411    413    438    455    387    304    316    357    348    332
149.200    374    439    494    528    474    407    457    534    521    472
149.400    428    400    444    499    469    413    402    409    423    439
149.600    458    469    437    394    389    403    436    473    496    515
149.800    538    560    575    580    550    516    534    567    573    564
150.000    528    497    541    600    583    544    550    565    536    490
150.200    439    408    479    574    585    571    594    613    537    440
150.400    426    454    520    589    588    561    537    525    562    608
150.600    607    589    578    575    598    629    644    651    654    653
150.800    637    615    593    576    579    591    600    603    582    558
151.000    564    587    630    670    650    611    599    604    647    693
151.200    678    636    589    552    580    636    702    761    767    748
151.400    717    691    712    750    783    806    797    779    780    792
151.600    825    863    880    871    778    678    703    770    790    794
151.800    807    832    902    977    988    978    987    991    938    875
152.000    877    906    938    974   1015   1060   1108   1148   1137   1107
152.200   1092   1084   1086   1095   1121   1153   1190   1221   1219   1212
152.400   1250   1300   1320   1324   1313   1299   1307   1332   1403   1481
152.600   1494   1480   1458   1439   1455   1496   1595   1706   1761   1785
152.800   1774   1745   1701   1668   1720   1795   1818   1821   1829   1838
153.000   1842   1835   1778   1712   1698   1729   1887   2068   2114   2112
153.200   2143   2162   2053   1928   1983   2105   2205   2293   2358   2414
153.400   2473   2501   2366   2203   2226   2315   2356   2386   2454   2516
153.600   2466   2389   2394   2449   2592   2717   2574   2375   2433   2579
153.800   2658   2710   2762   2821   2915   2994   2926   2798   2659   2534
154.000   2507   2502   2410   2333   2501   2738   2827   2842   2784   2705
154.200   2674   2647   2547   2446   2492   2593   2680   2746   2727   2674
154.400   2614   2558   2527   2513   2527   2551   2565   2584   2648   2710
154.600   2672   2576   2385   2209   2290   2440   2420   2327   2210   2126
154.800   2249   2404   2307   2143   2144   2218   2320   2413   2401   2350
155.000   2314   2282   2239   2177   2045   1910   1903   1960   2084   2202
155.200   2163   2054   1905   1765   1745   1781   1854   1917   1855   1761
155.400   1757   1776   1733   1689   1767   1847   1700   1510   1557   1663
155.600   1589   1468   1472   1509   1463   1395   1390   1409   1425   1442
155.800   1476   1511   1522   1514   1455   1375   1295   1231   1252   1292
156.000   1264   1218   1223   1236   1179   1110   1113   1138   1131   1117
156.200   1135   1162   1177   1187   1197   1187   1072    938    914    936
156.400    970   1011   1067   1121   1137   1122   1033    930    902    908
156.600    934    958    932    897    912    926    830    716    729    795
156.800    874    933    865    765    755    777    774    761    745    735
157.000    768    813    833    835    797    735    632    542    603    706
157.200    713    691    722    755    695    614    620    649    628    606
157.400    682    768    702    593    569    582    610    626    551    469
157.600    542    659    691    678    613    557    648    763    701    588
157.800    572    590    591    583    562    543    561    597    656    700
158.000    621    509    480    488    514    535    490    435    465    517
158.200    509    484    495    519    528    532    533    527    492    460
158.400    495    547    552    533    488    449    500    577    612    626
158.600    619    601    574    549    546    546    518    487    502    529
158.800    521    501    488    476    457    449    511    591    616    608
159.000    540    458    423    413    434    475    551    616    551    453
159.200    447    478    517    547    517    470    458    464    487    512
159.400    512    495    445    394    411    446    436    417    441    480
159.600    501    514    520    512    444    373    404    467    488    490
159.800    484    473    459    456    519    579    488    369    415    508
160.000    509    468    402    349    408    494    490    455    448    452
160.200    456    455    429    386    308    241    297    396    455    482
160.400    424    345    333    349    375    395    365    325    335    358
160.600    349    325    286    257    305    373    394    396    393    386
160.800    362    338    343    367    434    494    432    341    344    379
161.000    389    394    424    442    355    244    230    253    272    284
161.200    261    241    298    371    369    347    376    416    401    368
161.400    347    327    292    265    315    380    373    326    221    123
161.600    176    277    312    324    357    381    310    238    348    492
161.800    446    346    358    396    345    272    259    278    330    387
#.iScn. 2                                                .
#.STPi. 0.02                                                .
#.PSIi. 24                                                .
#.FETA. -1                                                                   .
138.000    100    113    164    212    170    107    118    150    145    131
138.200    145    166    161    150    164    189    224    245    179     97
138.400    105    144    156    166    215    270    280    266    223    176
138.600    163    166    184    203    197    191    235    283    256    202
138.800    168    145    135    134    150    178    234    281    220    137
139.000    162    216    202    164    144    135    143    153    143    128
139.200    130    138    146    151    142    134    156    186    196    197
139.400    190    180    170    160    148    138    138    143    150    165
139.600    216    265    229    172    177    203    212    204    141     77
139.800    110    173    192    199    228    252    208    143    116    111
140.000    143    184    203    219    265    305    254    177    156    163
140.200    192    223    222    205    170    132    117    120    167    222
140.400    233    227    216    207    213    230    274    311    263    191
140.600    169    166    160    165    235    311    288    238    247    271
140.800    260    238    238    244    241    241    268    292    249    191
141.000    190    205    185    158    164    176    146    113    142    191
141.200    217    228    215    198    205    223    252    273    228    162
141.400    126    108    121    143    145    147    186    229    220    190
141.600    157    126    108    104    142    191    218    233    233    229
141.800    230    228    196    162    178    211    231    243    247    242
142.000    217    194    224    271    290    292    267    233    207    185
142.200    163    149    174    212    240    259    258    251    259    260
142.400    199    134    174    247    274    279    272    265    280    297
142.600    282    263    289    328    344    341    293    238    240    256
142.800    233    206    231    263    223    176    231    311    314    296
143.000    328    371    367    346    330    317    306    299    310    323
143.200    306    282    278    283    293    301    287    268    264    272
143.400    305    334    290    230    242    277    288    288    275    255
143.600    225    199    213    241    257    264    246    228    262    305
143.800    293    269    295    333    333    316    294    279    314    352
144.000    308    244    238    252    246    239    262    298    332    354
144.200    315    257    234    224    216    215    252    295    293    278
144.400    286    303    315    319    288    259    303    364    357    326
144.600    312    307    322    335    305    256    205    169    210    272
144.800    289    292    323    352    311    258    280    324    330    317
145.000    291    268    293    328    316    294    307    321    265    208
145.200    283    382    336    246    226    241    294    355    381    386
145.400    356    324    350    385    345    288    295    325    348    363
145.600    350    330    331    333    295    246    222    216    250    299
145.800    342    373    360    334    327    329    344    348    270    179
146.000    183    231    306    385    427    443    397    336    319    312
146.200    273    235    269    326    360    375    346    308    307    311
146.400    267    215    223    258    309    357    354    329    299    272
146.600    273    287    309    330    326    313    305    303    321    336
146.800    291    231    213    222    288    358    338    297    331    384
147.000    385    360    312    268    292    336    338    326    324    321
147.200    292    255    238    235    269    324    414    494    457    376
147.400    308    260    282    322    309    287    327    379    371    349
147.600    378    419    414    392    385    377    341    311    376    458
147.800    443    391    344    309    321    355    411    468    493    505
148.000    514    513    468    412    386    369    332    303    349    411
148.200    401    374    397    429    401    365    407    461    412    339
148.400    349    393    434    464    449    420    414    418    420    415
148.600    375    333    348    385    415    435    413    381    378    389
148.800    418    441    396    343    390    454    408    330    310    315
149.000    325    335    337    337    347    356    340    310    263    223
149.200    253    310    362    407    424    430    439    450    461    459
149.400    389    311    335    388    389    371    360    355    370    385
149.600    367    345    373    408    381    337    330    335    330    325
149.800    347    372    365    366    470    590    580    526    509    502
150.000    468    433    445    467    452    426    417    417    425    438
150.200    458    472    449    419    426    445    452    460    493    518
150.400    448    363    391    442    378    292    325    400    453    503
150.600    585    660    640    582    524    479    497    534    534    522
150.800    519    520    529    537    522    492    437    388    422    483
151.000    509    529    591    654    640    594    538    507    619    753
151.200    704    603    610    641    577    497    527    586    565    533
151.400    599    684    663    613    638    682    679    651    593    548
151.600    625    727    709    652    640    644    641    631    600    574
151.800    619    679    668    637    654    692    740    787    811    820
152.000    802    777    769    763    737    709    713    730    755    787
152.200    839    888    884    862    863    871    866    864    900    953
152.400   1008   1049   1018    967    958    975   1038   1123   1218   1301
152.600   1301   1267   1233   1190   1100   1018   1066   1155   1187   1201
152.800   1230   1269   1321   1369   1366   1341   1312   1299   1368   1444
153.000   1390   1308   1346   1412   1378   1324   1372   1444   1441   1424
153.200   1494   1588   1635   1649   1593   1532   1588   1684   1753   1791
153.400   1728   1633   1588   1579   1653   1741   1731   1722   1920   2153
153.600   2151   2049   1922   1829   1959   2151   2205   2214   2280   2336
153.800   2232   2101   2156   2256   2205   2121   2177   2259   2191   2074
154.000   2013   1994   2069   2165   2181   2162   2129   2118   2239   2383
154.200   2380   2325   2305   2300   2299   2307   2356   2395   2296   2172
154.400   2201   2289   2362   2416   2402   2361   2325   2293   2273   2266
154.600   2304   2338   2263   2161   2134   2121   2025   1919   1936   2014
154.800   2149   2271   2211   2104   2120   2180   2207   2215   2196   2165
155.000   2129   2098   2099   2107   2083   2058   2085   2116   2067   1987
155.200   1920   1860   1807   1772   1812   1868   1856   1826   1851   1867
155.400   1736   1589   1654   1772   1733   1642   1606   1581   1500   1422
155.600   1477   1576   1630   1636   1494   1340   1424   1570   1548   1459
155.800   1377   1340   1519   1731   1668   1512   1436   1394   1360   1331
156.000   1304   1287   1315   1348   1316   1269   1277   1302   1304   1285
156.200   1212   1124   1065   1024   1021   1040   1092   1136   1067    979
156.400   1021   1093   1053    988   1015   1059   1006    933    952   1000
156.600   1013   1003    953    895    880    883    890    894    881    865
156.800    871    882    876    863    842    816    781    754    782    825
157.000    828    820    832    851    867    871    823    756    696    650
157.200    664    703    749    777    705    617    652    720    705    652
157.400    575    513    571    658    650    613    621    645    656    658
157.600    638    622    663    716    719    704    704    711    725    728
157.800    667    604    653    728    711    673    715    762    674    559
158.000    574    634    651    653    665    673    646    608    593    590
158.200    602    603    514    424    504    628    629    585    561    549
158.400    557    569    561    551    572    600    593    565    495    416
158.600    372    358    421    504    534    536    511    476    448    434
158.800    482    541    540    521    539    560    529    486    485    502
159.000    524    537    496    441    416    414    460    516    521    500
159.200    455    411    417    445    478    507    501    483    477    474
159.400    469    463    452    446    467    485    434    369    369    392
159.600    397    399    423    443    408    366    404    457    427    382
159.800    433    513    542    547    538    522    496    465    428    395
160.000    397    415    448    481    489    480    434    380    353    344
160.200    370    405    418    422    424    431    458    484    462    426
160.400    423    440    492    535    462    358    334    352    421    499
160.600    512    488    402    314    336    390    381    352    346    357
160.800    405    447    389    313    347    411    407    378    365    353
161.000    308    268    321    395    384    352    378    418    407    385
161.200    413    447    412    356    327    318    357    414    465    498
161.400    457    403    428    466    414    347    388    453    421    359
161.600    332    327    354    383    360    325    333    352    335    309
161.800    316    335    351    359    339    312    315    329    345    356
#.EOFm.                                                                      .
