#.DATE. 2018-06-22 23:57:37                                                  .
#.GTkV. 25                                                                   .
#.GCmA. 30                                                                   .
#.WLa1. 2.2907                                                              .
#.ANFG. 138                                                                  .
#.ENDE. 162                                                                  .
#.STEP. 0.02                                                                 .
#.t/St. 1                                                                 .
#.nScn. 4                                                             .
#.MaxI. 2786                                                .
#.    .                                                                      .
#.iScn. 1                                                .
#.STPi. 0.02                                                .
#.PSIi. 0                                                .
#.FETA. -1                                                                   .
138.000    305    274    248    227    219    219    229    240    235    227
138.200    242    258    231    195    199    210    176    137    166    217
138.400    240    249    248    244    248    255    257    244    163     76
138.600     94    151    193    224    231    225    196    171    214    270
138.800    251    203    157    126    173    244    275    288    288    267
139.000    169     73    134    240    259    246    248    257    273    288
139.200    291    279    212    137    124    136    153    174    210    240
139.400    210    171    209    257    210    135    115    120    138    161
139.600    177    184    155    119    126    151    179    207    224    231
139.800    216    200    222    249    220    174    163    174    228    279
140.000    227    155    191    258    257    228    195    168    176    194
140.200    192    186    200    222    244    253    196    126    129    164
140.400    214    259    251    222    200    184    189    203    212    218
140.600    214    206    195    186    195    208    208    208    238    276
140.800    297    299    240    169    164    188    219    241    201    157
141.000    211    286    263    208    191    190    194    198    189    175
141.200    159    157    225    297    249    166    148    154    150    151
141.400    197    261    323    368    325    250    193    153    163    187
141.600    180    165    175    194    213    230    242    248    237    221
141.800    215    211    196    178    170    169    188    211    221    226
142.000    237    244    216    177    150    136    164    202    215    222
142.200    256    293    300    287    242    200    233    283    260    213
142.400    192    186    199    221    253    278    248    207    222    249
142.600    220    180    203    252    304    345    318    271    262    274
142.800    313    353    343    308    251    194    181    185    190    210
143.000    297    386    352    282    285    317    346    374    402    423
143.200    412    388    361    332    303    271    227    192    220    257
143.400    206    142    188    269    303    306    242    168    169    196
143.600    198    195    219    244    227    206    249    310    339    360
143.800    403    433    353    246    225    238    241    249    294    344
144.000    345    323    276    235    269    320    303    262    241    230
144.200    236    252    288    317    276    217    216    233    225    218
144.400    263    318    316    283    203    125    147    209    271    328
144.600    360    368    301    221    221    251    273    290    302    302
144.800    252    198    226    278    291    289    287    288    304    317
145.000    285    251    296    353    318    260    269    305    342    367
145.200    327    273    279    306    317    317    302    281    265    250
145.400    230    219    265    307    224    119    157    246    302    335
145.600    323    299    303    313    290    247    170    110    197    321
145.800    338    316    313    308    258    205    232    285    311    324
146.000    319    314    344    376    349    300    256    225    244    285
146.200    333    365    310    240    270    329    332    313    302    291
146.400    267    251    307    378    389    359    251    137    154    223
146.600    287    342    357    350    310    268    289    327    320    304
146.800    330    367    382    379    330    270    250    251    280    315
147.000    323    321    316    312    316    311    239    165    208    285
147.200    300    292    293    297    304    307    283    252    233    229
147.400    277    327    287    224    231    275    372    467    447    380
147.600    307    249    281    342    368    378    383    383    376    363
147.800    330    308    373    449    406    332    338    368    358    335
148.000    322    316    320    330    352    379    414    439    396    329
148.200    277    238    237    255    293    342    406    467    482    463
148.400    372    284    356    465    436    359    317    306    385    478
148.600    464    410    368    344    393    456    443    401    372    345
148.800    300    257    260    285    325    369    403    430    441    440
149.000    417    392    404    420    389    336    268    219    294    406
149.200    463    487    459    417    402    400    413    428    428    423
149.400    421    424    442    463    467    456    395    329    331    357
149.600    363    357    331    310    353    409    410    388    364    356
149.800    428    503    435    326    304    321    364    412    430    440
150.000    465    487    459    412    372    341    343    359    372    386
150.200    410    435    450    456    444    424    404    394    435    491
150.400    514    527    553    574    537    477    422    385    435    503
150.600    496    466    476    502    526    545    539    517    465    408
150.800    384    391    483    589    592    550    491    452    543    668
151.000    695    680    651    611    536    470    512    588    613    623
151.200    664    708    702    680    673    682    734    786    743    674
151.400    660    666    662    658    676    703    737    761    725    684
151.600    743    821    802    756    767    790    756    715    751    817
151.800    886    940    913    853    794    753    797    870    913    941
152.000    951    949    930    912    934    972   1007   1026    972    898
152.200    877    889    961   1048   1088   1107   1108   1109   1143   1195
152.400   1264   1321   1283   1219   1220   1249   1295   1339   1344   1340
152.600   1363   1394   1408   1419   1442   1480   1571   1666   1673   1653
152.800   1674   1700   1666   1636   1745   1881   1877   1837   1897   1981
153.000   1990   1960   1890   1832   1916   2031   2021   1976   2011   2068
153.200   2078   2079   2123   2163   2088   1984   1962   1982   2054   2157
153.400   2316   2452   2355   2196   2194   2264   2384   2514   2594   2635
153.600   2584   2494   2396   2332   2458   2637   2703   2711   2659   2595
153.800   2591   2607   2608   2591   2521   2468   2613   2786   2706   2560
154.000   2597   2689   2690   2658   2651   2658   2693   2737   2770   2784
154.200   2733   2666   2657   2650   2537   2407   2408   2467   2548   2623
154.400   2623   2583   2495   2409   2438   2506   2547   2564   2511   2446
154.600   2458   2482   2416   2325   2289   2265   2193   2114   2100   2116
154.800   2152   2191   2208   2202   2128   2051   2097   2171   2132   2050
155.000   1978   1927   1966   2023   1995   1947   1967   2002   1970   1917
155.200   1888   1876   1904   1946   1981   2002   1968   1920   1910   1906
155.400   1852   1791   1795   1797   1656   1486   1459   1485   1488   1484
155.600   1492   1490   1419   1353   1444   1571   1563   1501   1441   1389
155.800   1377   1379   1376   1350   1226   1088   1080   1121   1148   1173
156.000   1213   1254   1270   1268   1226   1160   1049    951   1000   1086
156.200   1062   1011   1046   1110   1144   1152   1090   1009    972    960
156.400    991   1026    994    958   1029   1109   1017    874    816    791
156.600    759    740    793    860    852    812    760    713    709    721
156.800    723    722    725    724    703    680    692    711    698    670
157.000    629    589    577    584    628    663    583    486    536    620
157.200    585    515    504    523    577    642    692    725    706    671
157.400    658    643    578    510    530    581    609    618    580    533
157.600    531    546    556    562    556    536    463    390    424    489
157.800    502    502    539    582    580    564    568    576    567    555
158.000    561    573    572    562    535    504    485    466    424    381
158.200    384    407    434    453    430    394    378    374    388    408
158.400    418    421    406    390    402    429    473    511    487    439
158.600    393    355    359    376    383    393    443    485    407    291
158.800    223    187    208    263    376    481    431    348    407    502
159.000    493    439    364    303    357    439    436    397    351    317
159.200    355    418    464    495    481    450    424    404    402    404
159.400    383    354    333    318    318    325    336    335    274    209
159.600    249    319    329    319    327    346    380    407    371    324
159.800    355    402    369    317    323    341    294    236    248    284
160.000    302    306    282    267    357    452    367    241    278    360
160.200    339    289    302    334    333    320    312    312    344    375
160.400    342    293    286    287    246    210    279    366    328    258
160.600    275    316    303    267    221    183    204    242    251    252
160.800    265    275    248    219    255    303    281    242    258    290
161.000    289    283    319    358    333    296    321    350    274    182
161.200    222    297    287    258    305    367    349    301    260    221
161.400    179    143    150    177    217    257    262    254    244    241
161.600    272    294    206     96     99    146    185    214    208    198
161.800    238    289    300    287    239    190    208    251    294    327
#.iScn. 2                                                .
#.STPi. 0.02                                                .
#.PSIi. 24                                                .
#.FETA. -1                                                                   .
138.000    291    312    331    344    332    312    297    272    180     87
138.200    118    187    202    202    232    266    259    244    279    320
138.400    296    254    252    265    273    267    204    139    174    238
138.600    242    225    223    230    249    264    237    200    196    209
138.800    237    264    251    225    206    202    261    327    305    251
139.000    215    191    189    201    243    285    267    239    279    337
139.200    343    316    221    130    192    292    272    212    190    190
139.400    219    257    286    302    263    207    173    155    175    208
139.600    223    226    204    182    210    248    239    216    215    220
139.800    210    202    234    268    237    187    179    179    140    100
140.000    127    181    238    293    333    352    293    210    165    147
140.200    188    247    281    297    274    247    275    312    281    234
140.400    240    266    284    294    282    262    244    232    248    262
140.600    206    139    157    202    212    210    220    231    230    224
140.800    213    209    242    276    243    190    172    177    229    287
141.000    287    259    216    173    163    178    245    319    326    301
141.200    253    204    200    213    219    223    225    236    291    343
141.400    300    224    181    164    207    269    298    304    263    216
141.600    236    275    282    285    328    374    352    303    262    227
141.800    204    195    234    285    300    293    254    221    283    362
142.000    334    268    219    187    208    238    208    163    163    178
142.200    173    168    200    235    213    182    213    264    295    311
142.400    300    278    256    242    268    310    349    387    427    454
142.600    421    369    345    339    360    378    329    268    280    310
142.800    279    235    256    293    288    268    258    260    301    347
143.000    348    323    265    208    231    276    276    271    334    401
143.200    350    268    268    297    311    321    346    368    350    326
143.400    352    386    363    325    324    331    306    271    251    246
143.600    286    342    385    413    393    342    241    147    193    286
143.800    337    359    320    259    216    195    247    322    357    365
144.000    310    247    269    317    328    318    276    232    238    260
144.200    261    263    320    382    362    327    379    447    425    370
144.400    332    298    259    229    257    303    317    322    339    355
144.600    341    319    319    316    261    203    235    301    359    396
144.800    348    276    257    263    284    311    331    347    348    337
145.000    293    249    273    313    295    261    267    281    258    234
145.200    277    337    347    332    295    262    291    335    331    319
145.400    367    421    388    338    376    432    397    333    312    310
145.600    315    324    339    344    283    211    220    255    250    228
145.800    196    176    236    308    280    225    232    266    310    346
146.000    327    294    304    336    385    421    357    274    301    353
146.200    315    253    254    273    256    233    258    299    325    338
146.400    316    294    340    403    408    385    339    284    239    204
146.600    202    219    263    314    350    373    359    327    275    237
146.800    306    401    412    381    304    237    320    433    401    322
147.000    301    300    279    262    300    342    291    212    179    180
147.200    255    347    384    389    347    294    278    277    279    289
147.400    327    368    359    332    312    297    295    299    301    300
147.600    279    263    305    361    366    350    339    326    301    284
147.800    329    391    415    414    371    324    344    378    354    315
148.000    324    350    363    365    338    305    292    292    309    339
148.200    399    462    483    481    446    399    360    326    300    297
148.400    389    496    487    436    415    409    423    432    376    317
148.600    371    460    492    490    428    357    360    392    429    451
148.800    396    327    342    390    439    471    412    329    316    332
149.000    356    385    419    453    479    498    504    499    472    447
149.200    474    510    489    454    462    474    411    336    343    380
149.400    403    422    441    456    446    434    460    500    527    542
149.600    520    482    436    393    388    400    419    444    482    516
149.800    497    457    418    388    397    417    422    419    414    409
150.000    406    409    437    473    497    511    492    465    468    480
150.200    482    478    467    454    443    436    447    454    405    349
150.400    373    426    464    486    459    425    451    501    550    589
150.600    584    558    511    463    458    469    475    476    464    458
150.800    510    572    561    528    535    557    577    584    528    461
151.000    469    513    585    656    664    647    638    624    567    506
151.200    508    548    646    741    698    614    600    610    598    590
151.400    639    693    660    601    587    597    639    684    686    676
151.600    697    731    765    790    769    733    720    722    752    785
151.800    772    744    739    745    761    785    827    872    887    889
152.000    878    859    830    798    774    763    797    835    805    763
152.200    804    872    909    918    855    790    860    975   1042   1084
152.400   1097   1095   1070   1044   1056   1077   1060   1047   1132   1238
152.600   1254   1254   1352   1463   1436   1369   1379   1404   1359   1298
152.800   1305   1353   1466   1583   1583   1543   1528   1511   1429   1340
153.000   1346   1396   1473   1554   1605   1642   1674   1709   1767   1817
153.200   1775   1719   1770   1835   1755   1647   1691   1796   1911   1999
153.400   1939   1846   1893   1988   2046   2089   2124   2166   2263   2350
153.600   2280   2168   2158   2193   2251   2299   2249   2190   2286   2412
153.800   2381   2316   2393   2483   2356   2189   2256   2374   2283   2151
154.000   2224   2359   2387   2375   2373   2386   2453   2538   2608   2639
154.200   2506   2339   2327   2377   2424   2469   2507   2537   2537   2522
154.400   2489   2451   2426   2415   2447   2508   2619   2718   2650   2547
154.600   2594   2656   2485   2265   2265   2335   2316   2261   2201   2159
154.800   2214   2292   2290   2259   2243   2243   2291   2342   2310   2250
155.000   2223   2207   2178   2131   2019   1914   1976   2096   2179   2220
155.200   2124   2001   2010   2055   2018   1959   1952   1961   1948   1919
155.400   1850   1779   1775   1799   1833   1844   1723   1566   1494   1479
155.600   1576   1691   1673   1619   1655   1705   1650   1570   1578   1606
155.800   1554   1490   1523   1573   1514   1420   1365   1332   1334   1350
156.000   1366   1371   1326   1271   1273   1286   1247   1205   1253   1321
156.200   1307   1262   1221   1188   1190   1202   1197   1175   1105   1036
156.400   1070   1143   1199   1232   1179   1103   1088   1093   1068   1026
156.600    951    892    979   1108   1147   1146   1120   1069    941    814
156.800    837    911    932    935    953    964    915    852    847    855
157.000    813    766    789    833    839    820    756    688    688    704
157.200    662    611    638    696    751    793    773    736    732    738
157.400    719    692    672    644    566    491    529    600    606    593
157.600    617    650    656    662    716    775    754    704    666    626
157.800    559    505    571    662    633    568    560    569    553    529
158.000    515    515    567    617    562    486    518    585    607    604
158.200    568    526    522    533    537    540    543    542    516    491
158.400    521    566    574    567    555    544    545    549    546    542
158.600    545    549    541    532    536    536    483    419    403    409
158.800    423    433    398    359    385    429    433    424    428    447
159.000    508    562    499    406    393    411    417    426    469    510
159.200    479    431    440    468    479    476    438    394    387    388
159.400    357    331    397    478    456    401    391    401    422    446
159.600    457    447    360    275    352    470    471    428    400    386
159.800    407    428    371    310    385    484    425    328    356    416
160.000    388    333    326    341    371    402    408    402    383    363
160.200    368    372    324    278    340    431    447    439    456    471
160.400    418    346    319    323    395    477    466    421    392    368
160.600    329    284    234    193    209    249    302    348    334    309
160.800    348    398    379    331    268    218    256    317    310    278
161.000    258    246    259    278    280    275    262    252    277    316
161.200    360    390    342    273    262    271    265    261    294    333
161.400    328    314    340    375    375    355    302    249    263    301
161.600    330    356    381    397    378    339    277    224    266    333
161.800    335    320    351    389    362    316    300    294    278    253
#.iScn. 3                                                .
#.STPi. 0.02                                                .
#.PSIi. 35                                                .
#.FETA. -1                                                                   .
138.000    209    221    256    297    322    329    286    229    210    214
138.200    253    299    303    285    234    175    139    124    161    203
138.400    168    115    127    160    168    174    220    272    276    257
138.600    225    196    212    236    215    184    200    216    142     65
138.800    158    287    264    196    203    231    211    171    129    102
139.000    148    216    239    240    213    183    198    226    236    238
139.200    240    241    238    239    260    279    241    204    279    371
139.400    323    227    174    152    199    259    254    223    199    182
139.600    193    217    253    289    307    309    271    221    194    182
139.800    202    227    220    199    170    140    123    120    159    209
140.000    227    235    255    277    291    290    239    189    247    329
140.200    313    262    238    224    210    203    234    270    256    224
140.400    202    187    189    191    166    134    122    126    165    219
140.600    271    310    283    233    208    192    174    167    213    263
140.800    223    167    206    272    275    254    243    245    297    358
141.000    367    354    333    304    252    199    192    202    199    201
141.200    253    310    292    255    273    303    283    243    205    167
141.400    129    106    158    226    224    198    192    200    238    272
141.600    229    175    223    297    303    284    280    278    256    229
141.800    220    216    202    185    170    158    156    161    184    217
142.000    263    310    332    336    295    242    212    201    234    276
142.200    278    268    279    300    321    332    285    229    248    290
142.400    304    301    273    241    239    250    271    289    280    254
142.600    193    145    225    336    342    306    267    231    213    207
142.800    219    233    217    199    226    264    264    261    326    400
143.000    383    339    350    371    340    292    263    246    257    276
143.200    282    288    326    355    279    184    205    261    254    227
143.400    228    241    259    273    252    226    238    255    217    172
143.600    201    251    261    257    264    278    297    321    355    375
143.800    305    224    265    328    257    168    251    376    366    315
144.000    327    358    356    339    320    299    273    257    298    351
144.200    349    328    322    319    303    283    274    271    273    279
144.400    294    307    300    279    231    187    213    262    288    307
144.600    343    378    378    360    325    287    271    266    279    294
144.800    279    262    292    330    320    299    326    362    346    310
145.000    274    244    241    249    255    260    262    267    299    337
145.200    355    349    264    179    249    362    379    349    282    212
145.400    204    224    266    312    341    357    340    312    294    287
145.600    316    345    296    235    272    325    262    171    180    218
145.800    208    190    235    292    282    252    252    263    269    274
146.000    284    291    268    240    239    243    220    190    182    183
146.200    189    200    224    248    239    221    223    236    264    292
146.400    290    274    253    230    214    208    245    289    281    264
146.600    302    348    324    280    276    284    267    243    231    234
146.800    294    360    347    304    261    230    251    284    273    255
147.000    284    325    334    318    241    156    159    198    242    285
147.200    313    321    259    184    184    219    276    332    341    334
147.400    340    345    310    260    208    175    237    328    374    395
147.600    378    353    363    383    383    373    353    339    373    412
147.800    378    327    341    376    389    397    425    454    445    427
148.000    439    455    433    392    341    293    288    303    328    360
148.200    404    440    416    366    309    271    342    435    424    371
148.400    310    265    318    400    432    438    414    382    369    360
148.600    341    330    384    447    427    377    350    331    307    292
148.800    330    381    384    371    371    376    373    368    369    374
149.000    379    386    396    406    401    385    336    293    345    419
149.200    413    384    405    431    389    324    287    271    303    345
149.400    334    314    357    417    436    434    417    393    372    353
149.600    334    324    356    392    366    334    392    470    470    440
149.800    420    405    398    393    380    368    376    386    368    347
150.000    371    409    427    430    399    361    350    350    348    355
150.200    404    458    455    430    408    395    414    444    466    473
150.400    430    385    437    509    491    444    433    432    403    371
150.600    377    409    489    568    537    469    429    409    428    459
150.800    480    502    554    594    517    409    380    395    478    557
151.000    481    382    478    618    585    498    486    505    530    561
151.200    604    641    626    586    526    474    497    546    568    584
151.400    619    650    626    568    451    341    378    471    547    615
151.600    675    719    701    664    652    647    627    612    654    703
151.800    679    642    690    755    736    690    669    660    653    652
152.000    676    703    696    687    730    790    832    858    847    818
152.200    774    741    790    859    863    849    880    914    881    832
152.400    835    865    925    974    910    827    880    968    955    926
152.600   1022   1139   1114   1043   1024   1035   1092   1157   1166   1155
152.800   1159   1170   1189   1213   1247   1283   1311   1340   1394   1451
153.000   1475   1468   1377   1283   1336   1429   1430   1407   1444   1505
153.200   1563   1610   1612   1589   1533   1471   1454   1474   1594   1730
153.400   1748   1720   1703   1696   1709   1735   1781   1826   1823   1795
153.600   1737   1691   1766   1885   1978   2042   2016   1944   1827   1736
153.800   1868   2051   2039   1954   1894   1863   1924   2006   2011   1994
154.000   2019   2038   1947   1855   1985   2177   2240   2267   2364   2452
154.200   2347   2195   2198   2250   2244   2223   2248   2302   2405   2502
154.400   2474   2410   2417   2449   2456   2456   2463   2458   2379   2298
154.600   2349   2425   2361   2254   2215   2194   2125   2061   2115   2198
154.800   2188   2146   2132   2127   2107   2104   2216   2338   2280   2185
155.000   2267   2396   2408   2369   2302   2221   2126   2036   1993   1995
155.200   2127   2280   2276   2219   2205   2207   2194   2191   2261   2328
155.400   2229   2079   2010   1993   2068   2148   2068   1933   1846   1780
155.600   1721   1666   1616   1594   1702   1838   1852   1815   1761   1711
155.800   1710   1725   1725   1707   1629   1532   1465   1419   1426   1445
156.000   1418   1385   1418   1474   1505   1508   1416   1310   1324   1374
156.200   1366   1336   1314   1302   1317   1332   1292   1234   1196   1174
156.400   1192   1233   1314   1379   1291   1158   1113   1110   1144   1181
156.600   1161   1124   1114   1113   1110   1106   1097   1082   1042   1000
156.800    996    985    854    707    712    768    774    772    835    903
157.000    874    820    836    865    818    753    758    787    799    803
157.200    797    797    844    906    953    974    898    799    777    783
157.400    781    771    741    707    694    694    714    733    707    669
157.600    661    662    643    618    600    595    647    710    721    714
157.800    724    731    691    644    649    667    648    622    638    659
158.000    625    567    501    448    483    543    550    539    543    547
158.200    521    491    502    528    544    555    556    547    503    459
158.400    485    528    518    498    536    585    571    548    613    688
158.600    637    553    562    597    577    537    504    474    449    422
158.800    378    350    429    529    520    469    420    391    460    551
159.000    556    525    494    462    432    407    412    421    393    357
159.200    351    361    391    430    472    507    492    460    440    426
159.400    420    423    451    474    419    342    311    306    335    367
159.600    352    319    291    275    307    352    357    343    306    277
159.800    338    424    460    466    425    369    333    303    263    236
160.000    289    363    375    371    407    457    497    523    494    443
160.200    387    336    322    324    338    353    356    356    368    371
160.400    312    239    216    224    282    348    356    336    299    260
160.600    241    243    302    368    355    321    337    365    350    319
160.800    293    281    327    377    327    260    310    381    327    246
161.000    280    345    333    294    267    259    322    393    356    293
161.200    317    359    326    267    233    218    251    296    305    295
161.400    266    239    256    284    282    272    283    301    304    302
161.600    298    287    238    188    208    250    264    267    276    287
161.800    293    292    265    234    239    257    262    263    269    273
#.iScn. 4                                                .
#.STPi. 0.02                                                .
#.PSIi. 45                                                .
#.FETA. -1                                                                   .
138.000    263    264    279    293    280    256    229    199    164    144
138.200    214    307    335    333    309    287    312    337    270    181
138.400    167    178    164    155    218    291    269    211    164    138
138.600    192    268    293    291    259    228    265    309    253    181
138.800    231    312    310    281    290    301    244    174    179    212
139.000    238    257    251    233    202    175    193    229    265    292
139.200    277    249    238    239    268    293    240    164    128    121
139.400    180    254    263    241    191    142    156    200    264    321
139.600    301    256    231    222    248    280    274    251    225    197
139.800    170    152    174    206    205    196    212    237    255    268
140.000    268    268    298    325    275    207    201    218    230    234
140.200    210    180    185    198    186    170    186    217    268    322
140.400    354    375    378    365    310    248    236    236    198    152
140.600    148    157    151    148    193    251    279    288    259    224
140.800    239    269    281    285    294    302    298    293    303    313
141.000    291    263    265    277    279    267    204    137    158    203
141.200    195    173    191    218    213    196    179    170    196    228
141.400    217    194    201    217    221    220    212    204    201    203
141.600    217    237    269    295    276    243    237    232    185    136
141.800    164    227    315    393    374    310    215    126    132    169
142.000    172    177    256    340    307    241    243    262    223    174
142.200    193    238    277    308    317    320    338    352    314    262
142.400    239    232    250    279    316    342    298    248    306    386
142.600    353    291    312    360    378    387    406    417    365    302
142.800    316    349    330    297    297    309    306    300    304    310
143.000    308    297    264    229    228    241    260    282    299    317
143.200    342    356    300    231    237    269    284    292    297    297
143.400    282    261    247    230    193    161    199    254    254    243
143.600    285    332    294    242    288    351    294    217    272    361
143.800    360    327    321    330    364    398    385    362    381    404
144.000    362    300    269    261    300    344    321    280    284    310
144.200    353    381    301    205    249    327    300    238    214    213
144.400    247    283    256    222    283    368    391    392    408    418
144.600    368    307    308    335    365    387    356    303    248    211
144.800    266    344    357    336    283    241    318    418    401    342
145.000    310    295    313    348    395    428    371    290    274    280
145.200    269    256    268    296    349    398    369    316    299    298
145.400    302    325    428    535    497    413    389    386    368    346
145.600    332    324    321    322    325    328    331    330    316    305
145.800    344    386    350    292    287    296    270    237    237    253
146.000    274    298    319    334    327    312    302    298    314    336
146.200    348    354    352    343    317    289    278    278    298    325
146.400    348    363    338    307    323    348    330    298    291    296
146.600    316    338    343    337    311    282    275    280    302    328
146.800    347    359    348    328    311    295    276    262    279    303
147.000    294    278    294    318    323    325    346    359    297    220
147.200    221    246    236    219    237    267    285    301    326    355
147.400    394    428    425    403    358    310    292    287    290    294
147.600    285    277    299    327    327    322    355    391    367    325
147.800    313    319    353    395    414    414    367    321    375    458
148.000    486    478    395    302    306    342    350    349    364    381
148.200    368    351    366    386    366    336    336    341    314    281
148.400    285    311    375    441    437    410    406    407    383    364
148.600    415    471    407    309    278    283    333    385    358    311
148.800    318    348    393    429    393    340    340    358    355    351
149.000    392    431    373    297    318    372    399    410    398    373
149.200    336    315    398    505    528    510    449    387    408    449
149.400    420    377    399    437    423    401    438    486    475    437
149.600    374    322    367    432    407    355    356    379    404    421
149.800    396    368    410    467    456    417    373    334    333    344
150.000    337    327    337    358    397    431    404    366    401    458
150.200    480    480    438    387    371    364    329    306    400    520
150.400    543    524    487    447    432    438    504    577    567    516
150.600    430    349    366    409    385    357    436    532    498    429
150.800    447    483    442    383    387    416    439    461    496    529
151.000    529    507    445    383    399    442    458    468    498    535
151.200    564    587    593    591    576    559    560    563    538    516
151.400    564    629    642    625    563    499    515    559    583    599
151.600    612    618    597    571    573    591    626    663    673    675
151.800    685    699    712    707    622    532    585    685    735    759
152.000    753    745    782    823    789    735    731    740    711    670
152.200    647    642    690    747    738    707    702    709    720    731
152.400    737    741    748    758    775    794    813    827    821    812
152.600    831    876    996   1116   1083   1018   1096   1193   1095    950
152.800    962   1020    998    971   1082   1213   1168   1082   1151   1255
153.000   1231   1173   1210   1276   1302   1302   1255   1195   1164   1153
153.200   1187   1239   1291   1337   1358   1369   1383   1408   1475   1553
153.400   1604   1630   1583   1522   1539   1576   1558   1541   1639   1763
153.600   1784   1764   1745   1736   1772   1817   1814   1785   1719   1648
153.800   1622   1626   1692   1766   1762   1747   1840   1965   2033   2063
154.000   2008   1916   1804   1723   1839   1998   1984   1930   2027   2165
154.200   2198   2185   2144   2084   1985   1895   1925   1999   2053   2098
154.400   2137   2165   2153   2138   2193   2274   2348   2395   2319   2221
154.600   2266   2347   2318   2264   2297   2338   2245   2114   2057   2035
154.800   2043   2083   2223   2375   2392   2360   2358   2362   2336   2293
155.000   2228   2185   2292   2425   2385   2293   2289   2309   2266   2203
155.200   2170   2141   2075   2020   2088   2184   2170   2140   2245   2359
155.400   2241   2060   2019   2032   2027   2001   1906   1811   1850   1940
155.600   2023   2079   2015   1932   1996   2079   1965   1803   1791   1825
155.800   1786   1728   1723   1735   1724   1698   1643   1594   1627   1683
156.000   1687   1679   1709   1767   1880   1980   1897   1751   1656   1597
156.200   1612   1638   1575   1489   1460   1461   1497   1527   1459   1372
156.400   1393   1457   1523   1574   1550   1486   1370   1248   1194   1167
156.600   1134   1121   1228   1368   1436   1450   1334   1195   1199   1248
156.800   1229   1193   1207   1231   1208   1161   1086   1022   1068   1145
157.000   1159   1142   1105   1054    980    917    960   1023    971    889
157.200    884    921   1015   1097   1012    878    834    835    879    918
157.400    839    730    706    715    717    723    759    802    817    806
157.600    721    640    721    851    903    914    885    838    789    753
157.800    787    826    747    648    684    750    696    620    677    772
158.000    789    774    754    728    680    641    684    748    753    742
158.200    766    781    680    554    541    570    581    595    660    724
158.400    673    587    553    543    555    576    603    620    567    499
158.600    493    518    578    638    628    594    580    574    571    568
158.800    557    546    550    551    509    450    399    368    424    505
159.000    544    559    538    510    525    546    514    474    506    556
159.200    561    542    501    464    487    531    555    564    538    503
159.400    491    481    426    369    389    438    482    515    501    467
159.600    420    381    410    451    414    357    356    381    420    453
159.800    436    407    421    446    436    412    385    364    381    404
160.000    382    352    370    407    438    454    410    360    403    471
160.200    477    460    447    442    477    506    433    345    384    455
160.400    434    383    364    356    340    334    401    482    486    468
160.600    489    516    498    453    368    289    325    391    377    336
160.800    318    315    337    362    352    324    274    235    291    373
161.000    395    387    348    301    282    276    282    289    279    263
161.200    244    233    270    313    289    249    259    288    307    325
161.400    350    375    386    388    369    345    342    343    314    287
161.600    325    374    348    303    311    330    289    240    263    308
161.800    323    329    358    381    324    244    204    186    195    217
#.EOFm.                                                                      .
