#.DATE. 2018-06-23 12:28:52                                                  .
#.GTkV. 25                                                                   .
#.GCmA. 30                                                                   .
#.WLa1. 2.2907                                                              .
#.ANFG. 138                                                                  .
#.ENDE. 162                                                                  .
#.STEP. 0.02                                                                 .
#.t/St. 1                                                                 .
#.nScn. 2                                                             .
#.MaxI. 2895                                                .
#.    .                                                                      .
#.iScn. 1                                                .
#.STPi. 0.02                                                .
#.PSIi. 0                                                .
#.FETA. -1                                                                   .
138.000    254    265    262    257    267    290    345    391    330    243
138.200    241    271    288    291    249    208    264    331    264    167
138.400    180    235    272    292    262    223    242    280    296    298
138.600    265    224    210    207    212    222    241    251    206    155
138.800    187    246    272    279    259    232    222    215    193    172
139.000    189    220    246    275    324    365    319    248    219    210
139.200    218    227    211    197    248    316    346    352    319    283
139.400    306    336    291    225    211    212    193    173    195    228
139.600    241    242    231    216    205    198    209    215    163    111
139.800    177    275    291    283    315    350    317    268    276    301
140.000    301    294    305    311    257    198    231    288    280    256
140.200    287    329    319    293    287    292    309    323    298    259
140.400    220    184    158    147    191    247    250    234    228    217
140.600    166    118    170    249    266    256    236    206    145     92
140.800    145    226    231    213    236    272    287    295    314    336
141.000    348    350    322    285    263    255    287    324    301    258
141.200    228    211    229    252    225    196    249    314    274    208
141.400    223    270    309    331    283    220    222    247    257    255
141.600    221    190    236    300    306    284    242    212    282    370
141.800    348    290    272    270    269    270    276    286    306    319
142.000    277    220    198    201    258    319    296    246    225    218
142.200    227    242    247    253    279    305    288    259    255    264
142.400    291    312    268    209    203    232    321    407    350    254
142.600    248    278    313    350    395    419    322    206    245    320
142.800    272    199    254    345    363    352    349    345    316    283
143.000    275    286    339    395    384    348    324    311    333    350
143.200    275    192    254    358    382    366    305    246    280    340
143.400    337    311    293    280    272    271    293    324    349    361
143.600    326    280    271    267    216    166    214    284    261    211
143.800    211    241    323    407    402    365    343    329    325    318
144.000    271    229    284    351    286    196    243    330    345    338
144.200    363    390    365    329    341    366    356    334    317    301
144.400    275    254    278    316    336    348    358    359    315    265
144.600    272    301    326    346    341    328    318    307    276    253
144.800    307    372    345    296    319    357    323    269    257    266
145.000    303    338    307    254    231    231    289    350    306    238
145.200    257    299    286    263    308    371    386    383    387    391
145.400    390    380    338    294    297    311    286    261    310    368
145.600    329    268    294    340    316    272    268    281    299    312
145.800    288    260    279    312    320    316    302    288    295    309
146.000    308    306    324    346    346    346    386    429    406    352
146.200    283    220    220    244    256    265    274    287    317    336
146.400    270    196    255    353    381    375    338    294    285    285
146.600    267    244    237    243    278    308    263    207    254    332
146.800    355    352    321    286    291    306    296    285    317    367
147.000    414    443    387    308    287    285    263    247    301    365
147.200    341    291    289    310    343    375    380    368    328    296
147.400    364    447    403    318    276    264    307    370    416    449
147.600    442    417    379    343    345    360    360    353    343    336
147.800    354    381    405    420    400    373    381    399    402    398
148.000    396    388    351    313    320    342    341    337    366    404
148.200    420    429    443    462    493    520    500    466    450    436
148.400    389    342    363    398    368    329    374    442    465    465
148.600    448    431    444    466    468    459    433    412    446    488
148.800    459    407    386    379    376    380    414    454    464    456
149.000    421    383    387    404    404    394    366    344    390    450
149.200    438    411    446    489    449    386    379    404    473    539
149.400    505    438    409    396    386    383    405    428    401    365
149.600    379    408    409    408    452    495    444    382    445    537
149.800    517    466    475    495    442    372    363    378    387    399
150.000    444    489    469    431    433    445    429    410    434    465
150.200    443    412    448    502    521    524    520    513    499    485
150.400    480    477    472    466    457    455    493    538    541    535
150.600    566    602    589    564    571    581    543    487    441    415
150.800    474    543    499    432    480    561    582    580    588    601
151.000    621    637    626    610    626    648    643    641    709    785
151.200    760    706    713    734    700    652    639    640    638    641
151.400    677    725    761    784    757    708    646    598    650    729
151.600    745    747    810    880    855    796    750    724    767    827
151.800    840    823    748    678    749    861    888    881    867    877
152.000   1014   1155   1061    907    925   1009   1084   1136   1088   1015
152.200   1014   1041   1066   1093   1130   1170   1202   1220   1188   1148
152.400   1168   1200   1172   1133   1162   1215   1253   1289   1345   1403
152.600   1426   1444   1504   1558   1504   1437   1526   1657   1682   1664
152.800   1646   1641   1706   1789   1827   1845   1856   1860   1843   1820
153.000   1815   1813   1791   1777   1845   1939   2003   2055   2105   2157
153.200   2217   2270   2263   2221   2116   2019   2092   2215   2255   2253
153.400   2212   2173   2214   2278   2294   2297   2338   2393   2438   2469
153.600   2445   2395   2322   2281   2448   2651   2617   2513   2524   2560
153.800   2488   2405   2489   2609   2584   2525   2591   2684   2665   2608
154.000   2583   2556   2454   2348   2370   2465   2663   2863   2858   2794
154.200   2838   2895   2797   2651   2572   2534   2569   2633   2692   2739
154.400   2731   2688   2577   2456   2425   2435   2473   2514   2510   2474
154.600   2366   2262   2313   2396   2326   2212   2186   2191   2173   2156
154.800   2192   2251   2313   2363   2343   2295   2244   2213   2290   2365
155.000   2210   2005   2007   2065   1996   1899   1912   1954   1914   1847
155.200   1804   1767   1715   1674   1723   1796   1812   1803   1781   1749
155.400   1695   1648   1678   1725   1709   1651   1518   1379   1363   1400
155.600   1454   1503   1499   1473   1450   1441   1495   1550   1477   1368
155.800   1334   1339   1387   1439   1421   1374   1324   1274   1236   1208
156.000   1210   1219   1203   1178   1159   1143   1126   1110   1107   1109
156.200   1111   1116   1133   1136   1049    944    934    957    958    962
156.400   1026   1104   1131   1126   1066    987    923    875    877    897
156.600    912    929    974   1009    939    835    768    723    716    720
156.800    704    688    709    741    755    776    877    964    826    637
157.000    643    728    816    877    791    677    710    798    869    903
157.200    786    637    638    694    728    749    745    728    694    668
157.400    712    765    720    638    569    524    574    650    661    636
157.600    556    480    534    630    674    700    735    749    644    525
157.800    566    654    649    616    633    661    649    625    619    627
158.000    665    697    641    564    564    576    498    404    411    455
158.200    476    487    491    496    513    526    497    470    538    624
158.400    610    562    546    538    508    484    530    588    568    512
158.600    436    375    427    507    497    460    466    472    387    298
158.800    377    509    569    591    563    518    485    462    462    469
159.000    463    445    399    352    361    383    354    322    380    459
159.200    464    448    472    498    454    394    394    416    427    438
159.400    474    507    478    432    423    424    405    383    394    412
159.600    400    375    340    313    339    385    418    440    435    420
159.800    409    394    354    310    296    302    351    420    501    563
160.000    510    421    389    379    372    370    386    402    373    338
160.200    355    387    390    392    443    488    411    300    266    271
160.400    323    386    419    430    399    363    382    412    380    332
160.600    324    330    321    307    293    283    290    300    290    275
160.800    278    285    275    270    320    376    351    303    310    338
161.000    366    379    315    241    265    317    304    277    307    349
161.200    339    314    312    328    383    448    491    504    412    301
161.400    307    351    358    348    327    310    338    380    405    405
161.600    317    216    230    279    273    254    282    318    305    274
161.800    247    226    233    251    266    275    264    251    275    308
#.iScn. 2                                                .
#.STPi. 0.02                                                .
#.PSIi. 24                                                .
#.FETA. -1                                                                   .
138.000    294    230    209    202    180    158    161    181    229    277
138.200    264    224    177    137    149    180    209    231    220    198
138.400    188    184    190    197    190    186    222    266    270    260
138.600    257    255    241    228    242    266    293    310    269    208
138.800    164    143    208    296    324    323    294    259    252    260
139.000    287    303    234    154    197    266    220    145    154    189
139.200    194    190    206    227    231    230    231    237    266    290
139.400    242    178    169    187    225    261    245    219    242    268
139.600    215    145    142    172    234    290    261    214    250    301
139.800    257    190    195    220    205    176    162    156    163    177
140.000    201    231    271    304    281    246    269    304    282    240
140.200    208    180    149    129    171    230    257    270    276    278
140.400    269    251    216    182    185    191    140     90    157    256
140.600    281    269    212    146    118    116    163    210    162     95
140.800    123    192    281    363    375    352    296    233    210    210
141.000    248    294    300    281    219    160    209    291    320    322
141.200    292    252    219    198    225    263    261    240    202    166
141.400    169    198    285    368    318    225    189    178    185    205
141.600    253    301    289    262    277    292    224    137    126    147
141.800    168    192    223    257    296    320    262    186    177    196
142.000    223    248    246    240    264    287    245    185    165    171
142.200    222    282    289    281    308    337    311    264    220    183
142.400    173    176    194    224    286    343    320    285    355    440
142.600    392    308    314    343    307    254    247    261    280    295
142.800    275    255    303    361    329    272    269    285    292    302
143.000    341    376    341    293    323    381    421    440    397    333
143.200    286    257    285    329    343    350    382    408    355    287
143.400    299    337    342    331    303    271    251    243    277    324
143.600    356    377    374    352    275    194    196    228    239    243
143.800    258    276    283    290    322    353    332    290    245    205
144.000    195    201    228    270    339    399    361    292    268    268
144.200    298    329    308    274    282    301    297    286    290    303
144.400    334    357    302    221    166    135    166    224    294    348
144.600    307    235    205    201    248    305    302    278    266    258
144.800    248    246    282    330    353    360    332    299    308    330
145.000    332    330    351    375    369    357    372    379    294    202
145.200    260    356    340    289    282    290    288    284    290    296
145.400    282    257    222    207    315    445    437    382    370    372
145.600    351    317    263    209    195    204    249    297    282    249
145.800    254    274    289    302    308    310    299    283    267    252
146.000    244    237    226    217    223    237    261    289    314    332
146.200    323    313    350    387    331    243    190    169    245    341
146.400    348    318    277    242    265    303    301    293    332    375
146.600    344    284    221    174    212    276    298    307    331    351
146.800    318    267    231    213    260    325    353    353    281    196
147.000    183    209    285    359    326    271    321    392    358    293
147.200    282    295    324    356    363    361    356    351    356    364
147.400    375    379    343    300    299    311    305    300    345    394
147.600    371    329    336    356    346    336    387    449    438    390
147.800    300    220    270    361    397    412    432    445    411    364
148.000    342    348    441    530    427    284    321    405    359    284
148.200    321    393    418    422    416    404    379    350    331    322
148.400    351    388    387    374    379    394    419    437    393    343
148.600    378    439    452    444    431    414    395    375    350    340
148.800    407    483    454    401    446    510    473    405    392    395
149.000    371    335    286    248    295    373    441    495    501    488
149.200    481    466    393    309    287    290    301    320    361    402
149.400    399    387    412    438    392    336    370    431    449    446
149.600    428    408    411    425    444    461    455    428    348    273
149.800    336    438    462    455    451    451    463    475    470    459
150.000    452    452    482    511    478    428    418    426    441    451
150.200    424    386    368    358    350    349    386    431    436    431
150.400    448    468    459    452    509    571    534    473    487    520
150.600    497    465    506    570    604    614    566    498    450    425
150.800    473    538    540    510    450    407    509    640    629    567
151.000    534    524    574    635    636    604    532    468    526    614
151.200    612    586    625    672    632    570    568    593    630    659
151.400    626    585    629    698    719    713    667    616    620    647
151.600    684    715    704    675    641    621    678    749    733    692
151.800    693    716    765    809    773    723    758    820    842    846
152.000    840    831    829    827    813    805    845    897    909    905
152.200    900    906    972   1039    992    911    880    880    932    986
152.400    950    906   1002   1135   1173   1162   1098   1032   1067   1149
152.600   1260   1352   1299   1204   1194   1212   1198   1184   1230   1300
152.800   1367   1424   1439   1433   1409   1392   1452   1523   1500   1455
153.000   1480   1518   1474   1414   1431   1467   1445   1421   1510   1645
153.200   1782   1899   1916   1877   1761   1641   1653   1748   1998   2248
153.400   2191   2027   1940   1905   1973   2059   2022   1967   2072   2211
153.600   2203   2146   2136   2158   2248   2333   2251   2143   2235   2374
153.800   2348   2275   2294   2326   2236   2119   2107   2150   2258   2362
154.000   2313   2222   2231   2280   2334   2387   2423   2462   2543   2606
154.200   2497   2337   2269   2244   2256   2283   2315   2335   2290   2241
154.400   2310   2398   2346   2272   2367   2516   2600   2640   2590   2496
154.600   2367   2252   2285   2363   2368   2335   2255   2173   2173   2193
154.800   2153   2103   2121   2169   2224   2275   2296   2315   2391   2463
155.000   2406   2315   2309   2310   2175   2013   1994   2029   2051   2059
155.200   2027   1980   1941   1909   1894   1888   1894   1896   1858   1806
155.400   1764   1743   1810   1878   1774   1637   1675   1755   1695   1591
155.600   1544   1522   1508   1501   1509   1527   1562   1591   1560   1512
155.800   1504   1508   1494   1478   1495   1507   1426   1324   1307   1322
156.000   1334   1331   1266   1203   1275   1378   1366   1316   1306   1310
156.200   1306   1300   1302   1295   1223   1133   1085   1057   1049   1052
156.400   1070   1084   1046   1010   1084   1176   1135   1065   1120   1188
156.600   1076    911    841    821    861    912    900    860    815    785
156.800    843    923    931    907    858    815    847    892    850    796
157.000    847    922    900    838    765    688    621    584    685    810
157.200    780    695    644    612    613    628    645    654    618    574
157.400    583    613    643    669    673    669    665    654    603    552
157.600    578    625    629    623    658    702    701    674    604    536
157.800    566    630    664    680    664    638    619    616    678    737
158.000    649    526    518    549    547    532    522    514    509    513
158.200    557    603    579    531    502    480    458    448    499    562
158.400    557    524    488    459    478    510    510    499    488    475
158.600    447    430    498    585    595    571    527    479    450    434
158.800    449    468    439    403    425    458    424    388    469    575
159.000    574    525    450    377    370    383    358    327    344    380
159.200    416    450    469    480    474    454    393    336    389    466
159.400    450    403    396    400    384    362    350    344    346    353
159.600    365    372    341    303    310    338    389    434    404    359
159.800    389    441    450    454    521    587    523    416    354    325
160.000    368    426    414    376    346    322    308    300    304    321
160.200    383    441    387    303    286    295    304    314    334    360
160.400    398    423    364    292    317    374    396    401    393    375
160.600    338    297    271    256    266    281    268    248    246    258
160.800    298    334    290    235    282    359    383    383    376    370
161.000    386    404    390    369    370    383    416    441    389    328
161.200    372    439    411    350    312    298    354    416    367    289
161.400    292    321    312    289    274    259    229    208    257    329
161.600    371    391    363    314    260    222    274    344    326    284
161.800    302    339    356    355    312    263    266    289    307    322
#.EOFm.                                                                      .
