#.DATE. 2018-06-23 12:56:14                                                  .
#.GTkV. 25                                                                   .
#.GCmA. 30                                                                   .
#.WLa1. 2.2907                                                              .
#.ANFG. 138                                                                  .
#.ENDE. 162                                                                  .
#.STEP. 0.02                                                                 .
#.t/St. 1                                                                 .
#.nScn. 2                                                             .
#.MaxI. 2927                                                .
#.    .                                                                      .
#.iScn. 1                                                .
#.STPi. 0.02                                                .
#.PSIi. 0                                                .
#.FETA. -1                                                                   .
138.000    260    298    236    155    179    238    265    284    325    362
138.200    337    290    260    233    191    159    210    284    307    305
138.400    288    268    271    276    243    203    205    221    232    239
138.600    239    238    240    246    262    274    241    199    195    207
138.800    219    238    292    337    266    173    210    276    232    159
139.000    161    189    200    205    215    228    246    261    248    237
139.200    291    343    258    146    173    246    277    288    284    276
139.400    276    272    225    173    179    209    237    254    215    166
139.600    187    230    246    260    312    360    308    224    177    159
139.800    214    290    326    338    309    264    227    194    166    144
140.000    144    158    200    250    282    294    249    198    231    286
140.200    289    267    223    174    139    122    171    233    224    193
140.400    200    222    244    253    199    139    179    246    251    237
140.600    250    264    228    187    223    277    276    254    245    246
140.800    269    296    296    282    246    208    197    203    241    278
141.000    251    204    182    170    153    142    163    193    206    215
141.200    239    271    310    338    297    239    231    243    252    256
141.400    240    217    199    198    272    352    314    239    219    227
141.600    266    308    295    256    189    133    187    264    236    180
141.800    197    240    265    287    334    376    350    301    280    265
142.000    227    186    178    180    164    152    198    260    279    277
142.200    255    236    273    327    350    354    333    305    295    296
142.400    309    319    294    260    259    263    224    190    268    362
142.600    316    227    204    215    261    307    283    239    232    239
142.800    243    245    247    259    324    395    391    353    293    247
143.000    308    389    355    285    268    278    318    358    335    291
143.200    267    253    251    251    242    242    297    360    350    312
143.400    284    265    274    289    276    250    216    188    215    262
143.600    306    336    309    269    281    302    270    232    277    334
143.800    284    217    270    355    357    327    305    292    301    314
144.000    307    298    326    362    369    363    346    323    298    280
144.200    304    335    324    302    309    318    282    239    251    279
144.400    282    270    240    205    188    187    231    291    343    381
144.600    371    346    347    355    342    322    315    315    323    328
144.800    297    267    322    397    409    389    340    295    324    369
145.000    352    318    326    340    306    261    262    279    276    274
145.200    309    341    286    214    232    280    298    299    272    239
145.400    234    239    237    238    259    285    288    293    353    417
145.600    396    344    314    294    287    287    297    317    369    416
145.800    376    316    323    352    357    340    258    176    221    305
146.000    332    335    328    316    292    273    296    326    309    277
146.200    262    266    333    405    372    307    289    280    229    179
146.400    214    277    307    310    248    186    256    359    370    355
146.600    392    423    324    193    165    191    275    373    421    430
146.800    344    248    287    369    391    390    392    390    357    314
147.000    286    264    247    238    262    296    312    324    354    379
147.200    339    282    268    263    213    163    198    274    377    479
147.400    526    532    446    336    286    270    304    351    363    354
147.600    308    263    292    348    397    443    486    520    515    489
147.800    428    364    348    351    349    352    385    420    398    360
148.000    347    345    343    342    346    355    381    405    391    365
148.200    362    362    330    291    276    279    332    388    362    318
148.400    341    381    372    358    411    464    385    279    302    358
148.600    327    286    370    477    449    386    416    464    411    331
148.800    324    347    375    398    384    362    367    389    444    497
149.000    472    423    411    410    395    373    341    321    381    462
149.200    487    476    405    330    360    421    429    413    390    373
149.400    403    434    382    313    334    387    423    444    418    391
149.600    449    522    497    436    393    359    335    320    327    348
149.800    397    449    458    462    524    598    614    596    531    467
150.000    498    551    521    464    440    425    383    345    376    424
150.200    425    413    431    465    516    566    576    565    530    497
150.400    519    555    548    524    498    477    481    496    516    538
150.600    562    583    592    599    620    643    652    648    601    547
150.800    543    562    596    625    602    565    560    567    572    577
151.000    584    597    637    678    677    654    606    569    637    722
151.200    679    600    601    625    612    597    642    711    773    818
151.400    787    719    621    533    558    630    709    770    727    661
151.600    682    731    747    746    735    726    755    798    831    856
151.800    853    838    823    811    817    833    861    894    930    966
152.000    990   1006    997    977    945    915    910    916    919    922
152.200    930    948   1011   1069   1015    938    966   1036   1106   1173
152.400   1222   1258   1265   1254   1205   1183   1374   1604   1604   1521
152.600   1482   1468   1494   1524   1494   1458   1517   1605   1655   1687
152.800   1709   1726   1739   1755   1791   1845   1946   2022   1881   1704
153.000   1779   1907   1798   1638   1697   1832   1917   1971   1975   1985
153.200   2125   2280   2248   2142   2036   1941   1899   1910   2075   2281
153.400   2390   2441   2394   2325   2344   2395   2429   2469   2568   2659
153.600   2600   2490   2428   2406   2486   2583   2567   2530   2619   2736
153.800   2733   2687   2659   2638   2607   2603   2746   2884   2705   2462
154.000   2536   2698   2672   2579   2534   2514   2522   2569   2746   2927
154.200   2863   2709   2593   2506   2483   2496   2569   2643   2605   2543
154.400   2583   2635   2545   2434   2498   2604   2572   2507   2559   2611
154.600   2434   2221   2282   2416   2373   2279   2283   2322   2336   2350
154.800   2414   2475   2420   2319   2228   2167   2241   2334   2254   2132
155.000   2153   2224   2260   2263   2168   2042   1957   1915   1998   2106
155.200   2082   2002   1899   1811   1841   1895   1829   1748   1834   1938
155.400   1802   1612   1635   1726   1727   1688   1626   1565   1557   1566
155.600   1550   1526   1510   1499   1490   1483   1484   1481   1443   1385
155.800   1296   1219   1272   1355   1333   1276   1257   1255   1262   1270
156.000   1268   1261   1250   1234   1193   1152   1156   1177   1190   1188
156.200   1131   1059   1029   1012    985    967   1019   1078   1032    957
156.400    945    954    938    922    954   1000   1013   1006    962    911
156.600    893    884    845    800    782    780    808    835    797    749
156.800    779    829    821    792    776    778    842    907    857    772
157.000    740    727    697    668    674    685    650    605    608    628
157.200    638    640    622    612    682    771    793    774    677    571
157.400    575    613    603    566    499    432    428    458    526    597
157.600    602    577    542    517    567    636    650    634    576    513
157.800    505    528    596    661    618    539    498    478    488    506
158.000    502    496    520    551    554    545    529    516    528    553
158.200    595    634    628    604    583    563    538    523    563    609
158.400    577    520    501    499    502    508    514    507    437    350
158.600    308    304    400    511    497    440    416    415    456    508
158.800    535    543    511    465    431    407    418    443    471    495
159.000    486    471    491    511    462    400    405    436    460    470
159.200    422    364    378    412    409    390    368    344    318    305
159.400    354    417    426    419    434    450    428    394    383    383
159.600    391    410    459    513    529    519    459    388    360    349
159.800    333    317    309    310    331    358    372    377    365    357
160.000    399    461    523    566    514    434    406    398    392    390
160.200    409    428    401    362    363    380    402    423    432    432
160.400    411    373    300    228    238    288    381    470    454    393
160.600    319    252    252    275    283    286    295    306    312    314
160.800    306    298    305    320    337    345    303    251    250    268
161.000    276    283    302    315    271    226    286    365    331    260
161.200    232    228    251    282    303    317    319    308    252    198
161.400    246    326    364    381    370    348    331    306    238    173
161.600    213    281    282    267    304    349    332    295    280    278
161.800    296    320    339    338    250    154    188    265    297    299
#.iScn. 2                                                .
#.STPi. 0.02                                                .
#.PSIi. 24                                                .
#.FETA. -1                                                                   .
138.000    302    288    314    347    332    299    276    256    239    232
138.200    267    310    310    289    258    231    251    279    262    236
138.400    262    295    268    226    236    268    310    345    326    286
138.600    246    214    222    243    246    240    224    208    215    234
138.800    267    295    274    250    305    376    375    349    343    346
139.000    354    353    297    240    286    351    301    226    256    318
139.200    327    313    291    278    331    381    280    149    174    251
139.400    268    264    268    267    218    164    183    231    274    308
139.600    299    277    276    281    270    256    262    273    272    264
139.800    246    225    209    201    225    257    272    283    306    326
140.000    306    270    232    206    237    290    341    373    312    235
140.200    263    317    292    249    270    303    271    225    240    271
140.400    254    222    210    212    246    282    271    247    251    258
140.600    220    169    140    129    163    210    235    250    259    259
140.800    232    203    216    246    281    316    344    365    358    333
141.000    276    225    266    328    315    275    257    246    235    233
141.200    284    346    353    337    308    275    250    228    208    205
141.400    285    376    349    279    230    197    194    211    261    315
141.600    314    288    244    203    215    238    206    166    194    244
141.800    261    270    302    335    320    291    287    287    262    243
142.000    312    400    408    378    317    256    260    278    241    197
142.200    235    299    334    353    346    325    290    262    294    342
142.400    347    337    337    346    383    417    380    336    405    491
142.600    434    339    339    368    353    323    302    293    334    381
142.800    363    332    366    408    362    295    304    339    346    341
143.000    331    326    359    396    373    332    314    308    307    310
143.200    320    334    358    376    346    299    270    251    244    253
143.400    317    389    391    367    354    338    282    224    235    264
143.600    248    229    286    364    392    399    398    389    353    315
143.800    319    334    322    308    334    367    355    333    349    368
144.000    321    262    278    326    389    436    381    289    214    179
144.200    311    472    449    366    348    352    331    305    299    298
144.400    284    272    303    348    373    382    343    291    270    271
144.600    316    369    378    378    415    452    416    364    387    433
144.800    447    434    344    241    223    237    241    248    290    343
145.000    378    396    366    331    372    428    403    355    360    380
145.200    368    355    397    449    436    398    362    330    320    320
145.400    330    337    310    281    302    336    328    313    343    382
145.600    373    350    350    350    302    255    315    401    407    386
145.800    391    396    343    284    308    355    347    320    310    302
146.000    274    251    293    349    348    326    309    298    302    312
146.200    319    327    346    357    303    237    241    272    295    319
146.400    363    411    441    449    390    313    278    269    306    349
146.600    327    287    282    296    330    376    440    492    441    367
146.800    386    433    430    407    377    350    348    356    364    375
147.000    396    416    403    381    382    386    360    333    358    390
147.200    352    303    344    405    394    357    334    322    340    375
147.400    435    487    454    389    337    302    320    355    362    350
147.600    301    249    252    277    299    318    334    348    362    379
147.800    416    450    432    399    388    396    457    522    499    454
148.000    477    510    460    384    351    343    374    416    438    441
148.200    394    340    359    394    364    325    368    437    474    486
148.400    433    361    319    302    347    410    438    436    355    255
148.600    214    215    312    429    451    435    418    400    387    379
148.800    394    409    379    347    390    447    421    381    443    523
149.000    496    435    417    412    379    347    377    425    448    460
149.200    475    486    467    437    407    387    414    445    401    345
149.400    379    444    485    508    481    440    422    416    419    432
149.600    480    519    444    356    423    532    534    495    461    433
149.800    420    413    399    394    444    510    541    547    495    430
150.000    420    434    460    482    467    459    559    668    599    471
150.200    406    381    428    492    499    490    515    540    503    448
150.400    430    432    464    501    503    489    468    448    445    451
150.600    467    486    500    513    529    546    555    560    560    555
150.800    536    517    520    531    537    534    496    470    576    703
151.000    676    611    661    738    719    672    685    715    713    699
151.200    682    666    663    659    623    592    645    719    736    722
151.400    666    606    605    626    642    665    736    808    792    750
151.600    758    778    758    727    723    728    729    737    784    831
151.800    808    773    823    886    846    773    748    747    771    810
152.000    876    932    890    816    787    782    814    849    832    803
152.200    821    856    889    925    981   1032   1015    980    992   1020
152.400   1038   1043   1008    963    951    960   1004   1072   1192   1301
152.600   1253   1167   1201   1275   1309   1341   1440   1532   1455   1342
152.800   1384   1484   1563   1621   1619   1596   1591   1595   1606   1606
153.000   1539   1465   1489   1552   1605   1654   1700   1741   1765   1788
153.200   1833   1874   1851   1808   1787   1773   1751   1762   1959   2180
153.400   2146   2038   2065   2125   2072   2002   2073   2194   2275   2325
153.600   2293   2231   2178   2149   2226   2334   2381   2395   2369   2328
153.800   2297   2281   2325   2380   2370   2332   2286   2241   2226   2246
154.000   2388   2532   2449   2311   2350   2439   2423   2393   2504   2644
154.200   2641   2578   2502   2434   2436   2468   2513   2553   2543   2523
154.400   2553   2584   2517   2432   2455   2526   2620   2703   2681   2615
154.600   2534   2445   2339   2253   2297   2379   2388   2353   2246   2158
154.800   2307   2498   2427   2274   2235   2258   2366   2479   2450   2381
155.000   2397   2440   2448   2424   2312   2186   2172   2177   2062   1920
155.200   1886   1902   1945   1987   1972   1925   1831   1765   1929   2128
155.400   2039   1854   1762   1735   1843   1967   1899   1777   1765   1788
155.600   1766   1722   1658   1612   1696   1794   1699   1555   1554   1603
155.800   1617   1618   1623   1606   1474   1330   1361   1452   1496   1508
156.000   1448   1364   1297   1254   1296   1358   1350   1318   1309   1298
156.200   1229   1154   1166   1200   1175   1129   1093   1070   1087   1127
156.400   1199   1266   1251   1199   1124   1051   1033   1028    980    926
156.600    933    963    982    994    997    988    929    870    903    959
156.800    948    910    869    843    897    967    962    925    883    853
157.000    896    951    916    851    809    783    782    795    823    836
157.200    746    637    641    690    732    764    753    734    758    798
157.400    825    827    734    619    589    600    644    702    757    784
157.600    676    547    588    681    701    694    702    723    779    827
157.800    766    668    597    547    545    566    600    634    638    632
158.000    633    629    583    537    571    627    635    620    592    560
158.200    539    528    537    545    501    449    454    484    524    561
158.400    566    554    522    482    437    398    391    399    418    439
158.600    444    451    503    555    517    461    496    560    584    587
158.800    560    523    493    467    453    443    433    429    456    491
159.000    496    493    503    519    530    534    505    470    471    483
159.200    474    458    452    453    474    497    498    481    416    357
159.400    423    519    517    484    499    523    495    456    461    469
159.600    412    344    356    395    412    413    376    338    368    426
159.800    486    537    545    527    469    405    394    403    407    416
160.000    457    502    502    490    509    533    516    479    428    378
160.200    358    349    335    330    379    433    412    370    380    405
160.400    405    390    351    310    299    311    375    443    429    393
160.600    409    434    407    367    367    380    378    374    385    393
160.800    351    303    325    377    436    487    486    466    454    446
161.000    435    418    379    337    325    328    345    371    418    458
161.200    415    351    349    369    382    375    283    182    206    271
161.400    289    296    338    382    365    332    347    362    284    205
161.600    313    457    412    307    272    272    302    339    348    338
161.800    293    240    224    230    281    331    293    233    248    286
#.EOFm.                                                                      .
