#.DATE. 2018-06-23 12:49:09                                                  .
#.GTkV. 25                                                                   .
#.GCmA. 30                                                                   .
#.WLa1. 2.2907                                                              .
#.ANFG. 138                                                                  .
#.ENDE. 162                                                                  .
#.STEP. 0.02                                                                 .
#.t/St. 1                                                                 .
#.nScn. 2                                                             .
#.MaxI. 2966                                                .
#.    .                                                                      .
#.iScn. 1                                                .
#.STPi. 0.02                                                .
#.PSIi. 0                                                .
#.FETA. -1                                                                   .
138.000    152    166    190    219    251    275    249    212    219    238
138.200    237    228    224    233    297    368    362    319    241    166
138.400    173    216    277    327    289    228    234    260    261    256
138.600    278    309    336    356    341    311    273    232    198    175
138.800    198    236    251    256    258    257    254    247    227    206
139.000    212    232    277    323    332    319    268    206    166    146
139.200    191    250    254    245    279    326    350    353    303    239
139.400    218    218    236    256    245    229    254    290    293    289
139.600    317    343    304    257    308    379    352    298    307    326
139.800    265    192    211    263    298    320    312    289    249    217
140.000    255    309    302    273    264    260    246    235    259    292
140.200    300    301    319    335    311    281    304    337    317    278
140.400    254    242    263    283    228    156    141    146    141    141
140.600    191    259    319    366    368    349    320    292    297    312
140.800    311    297    253    204    190    202    274    347    310    241
141.000    235    254    268    278    276    269    257    242    219    201
141.200    223    257    273    284    313    339    313    277    286    313
141.400    337    348    306    245    199    164    157    175    263    358
141.600    348    302    288    288    301    313    292    267    290    322
141.800    304    274    284    310    335    348    307    254    245    254
142.000    271    289    297    303    319    338    349    354    349    335
142.200    304    268    242    230    267    319    356    375    342    301
142.400    324    364    367    355    343    329    307    289    311    333
142.600    273    198    206    251    306    348    302    237    257    304
142.800    314    318    359    409    434    436    380    318    349    407
143.000    412    395    378    363    361    364    364    361    356    343
143.200    292    243    279    338    345    328    296    274    329    398
143.400    385    346    339    335    281    230    296    387    378    342
143.600    379    428    387    322    309    311    288    266    307    366
143.800    390    401    416    420    365    305    332    377    339    280
144.000    287    315    308    289    272    264    296    333    320    307
144.200    397    501    462    380    371    385    366    341    354    377
144.400    373    356    323    286    264    254    274    300    299    283
144.600    244    212    263    337    359    355    321    281    268    274
144.800    318    371    386    380    347    307    285    276    289    310
145.000    326    335    322    310    343    390    414    420    384    343
145.200    359    385    351    301    289    296    315    334    331    328
145.400    370    420    417    394    381    368    343    312    273    243
145.600    271    317    330    332    349    367    367    363    382    418
145.800    494    559    491    374    285    232    299    397    407    376
146.000    323    276    303    350    357    354    389    422    369    298
146.200    312    349    332    296    270    245    202    184    329    488
146.400    391    221    202    246    300    345    325    288    291    307
146.600    301    289    286    288    303    332    406    480    466    424
146.800    422    425    373    314    332    367    338    294    300    329
147.000    368    407    419    420    415    405    388    358    275    198
147.200    259    358    374    358    350    348    358    380    445    519
147.400    552    554    491    413    397    404    411    412    391    365
147.600    356    350    327    308    343    398    451    488    448    392
147.800    403    431    409    370    344    335    379    433    426    410
148.000    474    546    498    412    379    373    395    418    383    335
148.200    339    361    376    383    365    347    377    421    430    431
148.400    454    469    400    322    361    431    421    385    381    399
148.600    468    537    501    437    440    459    426    379    362    357
148.800    347    345    390    449    488    514    518    512    493    475
149.000    487    496    433    358    365    402    425    443    456    467
149.200    470    466    447    428    442    465    461    442    393    351
149.400    401    468    443    399    440    498    468    409    387    382
149.600    392    405    408    404    388    379    423    473    440    381
149.800    355    355    413    485    504    498    475    447    429    422
150.000    447    482    500    507    491    467    451    450    504    564
150.200    541    496    506    537    564    583    566    541    551    563
150.400    520    470    500    550    543    520    527    550    585    613
150.600    581    527    488    463    485    520    531    532    528    540
150.800    639    747    728    660    599    549    537    543    556    571
151.000    582    598    641    686    689    670    623    580    614    664
151.200    644    616    691    777    713    619    672    757    710    628
151.400    638    699    835    957    859    708    732    815    846    858
151.600    877    886    833    769    774    803    817    819    796    776
151.800    826    895    921    923    898    870    884    910    919    924
152.000    939    964   1016   1067   1063   1039   1023   1011    996    986
152.200   1011   1060   1166   1263   1206   1101   1058   1043   1046   1062
152.400   1108   1170   1252   1326   1320   1288   1285   1305   1386   1484
152.600   1541   1579   1607   1621   1590   1562   1647   1740   1645   1516
152.800   1594   1727   1726   1700   1809   1945   1943   1897   1914   1951
153.000   1963   1957   1906   1863   1943   2054   2070   2046   2009   1987
153.200   2067   2169   2184   2152   2057   1976   2090   2259   2318   2330
153.400   2334   2324   2269   2220   2299   2407   2405   2379   2453   2545
153.600   2522   2461   2435   2435   2493   2585   2727   2856   2819   2721
153.800   2656   2620   2661   2713   2668   2603   2630   2679   2656   2613
154.000   2613   2620   2569   2512   2542   2594   2591   2599   2775   2966
154.200   2890   2726   2651   2622   2649   2690   2683   2661   2662   2671
154.400   2670   2651   2554   2457   2518   2632   2696   2714   2602   2448
154.600   2346   2286   2334   2418   2464   2472   2372   2234   2129   2073
154.800   2197   2376   2470   2508   2438   2337   2304   2297   2280   2271
155.000   2315   2362   2309   2210   2073   1939   1900   1895   1878   1868
155.200   1917   1979   1991   1982   1973   1942   1806   1674   1775   1920
155.400   1817   1657   1707   1800   1686   1529   1564   1657   1655   1609
155.600   1534   1450   1373   1328   1431   1561   1531   1442   1373   1327
155.800   1353   1402   1426   1428   1373   1300   1252   1222   1231   1257
156.000   1298   1328   1278   1212   1229   1271   1270   1245   1183   1122
156.200   1133   1171   1200   1210   1140   1062   1099   1158   1094    999
156.400   1002   1031    995    953   1006   1082   1078   1041    996    950
156.600    919    894    876    869    910    949    880    803    902   1039
156.800   1008    909    803    721    771    845    779    681    703    764
157.000    778    778    798    828    870    894    810    700    685    699
157.200    675    645    666    693    645    583    598    645    695    737
157.400    729    695    629    568    592    642    651    641    624    612
157.600    638    675    684    687    718    749    720    664    590    524
157.800    541    590    633    665    658    631    578    528    553    600
158.000    612    608    594    578    574    578    603    632    631    615
158.200    577    539    536    545    536    520    507    499    508    520
158.400    513    506    531    551    484    407    454    535    541    513
158.600    470    441    515    609    590    530    490    464    468    488
158.800    528    558    501    420    391    391    436    491    511    509
159.000    469    422    423    440    442    448    502    557    514    448
159.200    465    514    558    584    527    450    440    457    482    504
159.400    494    481    508    538    496    434    409    398    380    365
159.600    375    398    436    472    465    440    413    396    431    475
159.800    464    431    406    394    427    457    374    273    307    384
160.000    409    410    394    377    382    390    370    343    344    353
160.200    344    341    404    472    425    346    334    341    315    284
160.400    298    322    309    286    288    297    288    288    371    464
160.600    439    370    321    294    344    409    399    361    336    323
160.800    343    372    373    365    370    379    380    371    329    271
161.000    206    156    193    264    330    380    363    327    331    351
161.200    373    383    333    277    314    370    333    269    253    261
161.400    291    324    332    335    361    379    307    217    217    252
161.600    282    308    322    332    342    353    369    377    334    276
161.800    253    248    266    290    291    284    283    280    249    223
#.iScn. 2                                                .
#.STPi. 0.02                                                .
#.PSIi. 24                                                .
#.FETA. -1                                                                   .
138.000    246    228    210    202    242    286    247    188    197    235
138.200    285    326    300    265    313    383    390    360    270    179
138.400    205    270    303    315    284    243    240    251    255    258
138.600    266    280    313    343    328    303    321    344    304    247
138.800    237    251    300    351    350    323    266    220    286    370
139.000    326    238    191    170    189    224    252    267    224    172
139.200    190    229    236    228    210    193    200    216    233    251
139.400    264    275    279    282    287    287    260    233    260    291
139.600    240    171    174    208    255    295    272    238    279    331
139.800    291    221    181    152    120     95    117    154    181    205
140.000    239    272    280    277    267    255    245    248    316    387
140.200    346    274    267    279    251    227    301    384    311    197
140.400    198    243    281    303    255    190    180    194    216    243
140.600    275    301    282    250    236    236    261    293    302    303
140.800    309    315    316    315    317    317    295    271    272    283
141.000    289    294    306    314    294    270    287    318    334    340
141.200    326    306    296    294    309    320    279    233    267    321
141.400    314    287    290    288    209    131    208    318    278    202
141.600    248    328    338    323    323    324    303    278    277    286
141.800    305    319    295    257    230    216    239    273    287    291
142.000    287    279    271    269    302    348    396    430    397    344
142.200    326    316    278    240    260    305    355    399    405    397
142.400    402    411    412    410    410    403    366    329    355    397
142.600    389    370    393    427    434    436    466    491    428    343
142.800    321    329    354    383    398    408    415    411    355    295
143.000    317    361    353    332    346    367    350    324    333    348
143.200    326    294    280    282    324    376    395    401    405    410
143.400    420    421    367    304    306    333    357    374    364    350
143.600    364    388    402    411    410    398    344    283    264    273
143.800    335    405    402    370    339    318    337    371    395    413
144.000    418    415    398    371    316    263    275    308    314    312
144.200    322    334    338    336    327    320    340    365    365    358
144.400    364    373    365    353    346    343    347    354    368    380
144.600    375    368    383    396    359    314    332    367    359    335
144.800    321    324    390    463    438    377    331    300    319    351
145.000    353    347    363    384    390    384    348    315    357    417
145.200    417    386    325    272    322    399    401    374    352    341
145.400    375    418    414    398    412    427    386    335    349    388
145.600    425    449    411    364    387    427    405    357    299    255
145.800    296    352    310    244    260    303    324    335    338    347
146.000    402    464    461    435    416    403    410    420    410    395
146.200    395    396    372    348    377    425    463    490    479    451
146.400    416    385    388    400    393    387    418    447    389    318
146.600    349    403    368    310    307    338    424    513    504    456
146.800    413    369    318    283    338    411    387    333    319    323
147.000    336    354    382    412    432    439    401    350    325    320
147.200    360    408    406    386    371    367    401    442    435    420
147.400    462    505    444    364    393    452    451    428    423    425
147.600    422    424    454    480    425    355    376    420    394    361
147.800    432    521    500    440    408    384    342    309    364    452
148.000    525    573    521    436    388    365    400    448    445    421
148.200    397    381    410    452    472    480    470    455    453    464
148.400    508    552    526    483    492    516    510    494    490    486
148.600    463    438    437    445    458    467    451    426    404    391
148.800    415    447    449    442    450    468    509    549    534    496
149.000    450    409    411    429    439    452    502    555    558    546
149.200    564    582    542    485    468    458    406    357    401    478
149.400    525    552    534    499    467    448    483    519    456    379
149.600    424    509    549    566    561    550    549    556    578    593
149.800    545    489    521    572    540    484    480    499    538    575
150.000    565    548    584    631    622    579    482    387    402    462
150.200    519    560    531    486    504    540    534    525    578    641
150.400    627    584    546    516    518    533    555    573    562    546
150.600    560    576    537    491    513    560    587    597    559    512
150.800    522    552    577    589    554    515    551    613    655    686
151.000    701    702    671    632    616    617    648    687    699    685
151.200    590    487    510    574    588    591    636    683    658    619
151.400    654    709    724    715    674    634    664    716    733    736
151.600    731    733    790    849    811    743    715    714    765    822
151.800    809    778    804    848    875    888    864    830    813    803
152.000    796    797    830    864    838    799    815    848    859    859
152.200    844    839    907    983    946    877    876    902    928    951
152.400    954    949    941    931    923    935   1047   1178   1209   1205
152.600   1234   1269   1266   1244   1200   1165   1213   1289   1334   1358
152.800   1345   1324   1338   1361   1361   1353   1358   1368   1378   1389
153.000   1405   1418   1405   1390   1425   1476   1512   1535   1525   1522
153.200   1627   1754   1773   1740   1663   1590   1622   1694   1755   1789
153.400   1713   1619   1660   1752   1837   1913   1956   2001   2123   2235
153.600   2152   2012   1982   2017   2159   2317   2348   2331   2327   2329
153.800   2326   2332   2386   2436   2361   2264   2300   2381   2414   2406
154.000   2286   2138   2067   2046   2121   2228   2295   2347   2396   2428
154.200   2381   2314   2297   2310   2368   2429   2417   2365   2266   2186
154.400   2296   2450   2443   2375   2327   2297   2322   2366   2398   2408
154.600   2326   2225   2206   2219   2230   2231   2184   2115   2031   1983
154.800   2143   2343   2325   2236   2232   2266   2322   2365   2306   2215
155.000   2169   2148   2160   2166   2072   1972   2039   2135   2041   1897
155.200   1883   1905   1850   1786   1827   1904   1943   1955   1912   1865
155.400   1913   1973   1906   1801   1760   1744   1731   1717   1691   1658
155.600   1607   1550   1500   1470   1533   1616   1614   1577   1537   1496
155.800   1458   1439   1507   1572   1454   1292   1281   1320   1304   1275
156.000   1290   1335   1450   1566   1554   1482   1375   1256   1152   1066
156.200   1043   1056   1121   1195   1212   1209   1216   1213   1132   1036
156.400   1025   1049   1081   1114   1129   1134   1127   1119   1133   1145
156.600   1109   1067   1095   1135   1096   1032    993    959    893    836
156.800    883    958    971    956    924    890    875    870    881    888
157.000    839    777    765    789    894    999    934    821    801    812
157.200    785    758    804    860    814    744    749    780    783    769
157.400    726    686    716    762    743    704    690    676    612    546
157.600    570    632    701    759    750    723    739    763    732    692
157.800    714    749    729    691    676    666    636    609    632    674
158.000    703    715    670    614    615    636    647    650    636    610
158.200    552    500    535    595    605    594    578    573    635    702
158.400    665    596    569    568    610    669    725    757    682    575
158.600    520    501    559    636    663    660    614    559    550    565
158.800    602    644    668    674    630    572    544    529    520    517
159.000    524    530    503    467    456    471    571    679    655    591
159.200    584    601    624    638    587    527    547    592    600    585
159.400    524    459    469    503    512    516    550    577    509    426
159.600    460    530    555    562    576    592    608    612    556    490
159.800    497    526    520    503    503    511    527    542    530    514
160.000    523    539    535    526    529    528    487    441    453    492
160.200    544    589    569    527    504    487    468    447    423    412
160.400    479    556    523    460    464    490    498    500    515    533
160.600    539    537    512    489    524    566    523    455    424    413
160.800    432    463    502    545    590    617    552    464    445    452
161.000    455    457    458    456    447    434    418    400    382    375
161.200    421    474    454    407    378    377    476    591    581    534
161.400    550    585    584    554    455    356    391    466    481    470
161.600    454    442    463    481    416    339    369    433    458    456
161.800    391    320    342    400    448    480    452    409    408    417
#.EOFm.                                                                      .
