#.DATE. 2018-06-22 23:58:45                                                  .
#.GTkV. 25                                                                   .
#.GCmA. 30                                                                   .
#.WLa1. 2.2907                                                              .
#.ANFG. 141                                                                  .
#.ENDE. 165                                                                  .
#.STEP. 0.02                                                                 .
#.t/St. 1                                                                 .
#.nScn. 4                                                             .
#.MaxI. 2891                                                .
#.    .                                                                      .
#.iScn. 1                                                .
#.STPi. 0.02                                                .
#.PSIi. 0                                                .
#.FETA. -1                                                                   .
141.000    188     93    145    240    263    257    248    246    286    326
141.200    291    236    236    252    240    226    267    322    340    336
141.400    290    242    264    309    326    320    252    176    177    211
141.600    255    286    232    160    169    210    243    266    254    233
141.800    237    251    263    267    233    192    194    214    234    253
142.000    265    267    228    188    229    296    325    335    325    308
142.200    294    284    286    288    272    255    273    299    295    278
142.400    256    241    271    303    255    186    173    184    200    226
142.600    287    344    308    246    244    258    235    210    247    294
142.800    268    227    262    325    370    388    306    204    204    242
143.000    271    296    313    313    245    171    208    285    332    358
143.200    336    301    303    307    256    198    223    266    231    174
143.400    165    178    206    232    215    193    231    277    243    186
143.600    177    190    215    246    280    308    293    264    253    253
143.800    273    294    278    255    264    282    280    272    277    283
144.000    264    240    236    239    235    237    274    322    352    366
144.200    343    308    288    276    274    272    250    228    246    275
144.400    276    267    265    274    331    388    348    284    289    307
144.600    258    198    215    256    265    267    299    328    284    222
144.800    223    247    260    260    225    181    169    176    221    273
145.000    287    280    246    216    253    309    326    329    332    337
145.200    347    353    331    302    301    318    367    414    386    333
145.400    307    293    290    295    314    340    381    412    368    302
145.600    274    265    269    272    239    209    270    357    389    401
145.800    422    436    400    345    298    262    266    293    352    403
146.000    350    273    278    313    335    346    332    308    284    267
146.200    288    330    404    463    385    282    322    400    375    319
146.400    316    330    324    315    326    343    345    339    323    314
146.600    357    407    388    342    293    255    275    310    298    275
146.800    282    303    326    343    328    311    349    399    397    380
147.000    388    395    346    284    273    288    325    368    394    413
147.200    427    433    411    377    343    327    401    491    481    434
147.400    402    376    348    325    327    341    362    374    331    270
147.600    234    218    255    309    340    353    319    275    269    288
147.800    352    415    383    321    294    291    333    382    378    356
148.000    352    354    348    340    344    352    361    372    385    390
148.200    352    312    357    414    368    292    279    292    307    316
148.400    295    274    321    388    417    423    391    343    295    268
148.600    347    443    406    329    315    325    323    321    334    354
148.800    372    387    386    378    370    366    387    421    473    513
149.000    450    362    359    382    372    357    390    429    401    353
149.200    334    323    302    279    271    274    300    335    367    392
149.400    390    376    350    327    336    364    424    472    405    313
149.600    334    394    419    420    368    304    293    306    329    364
149.800    431    490    449    381    383    411    431    441    422    398
150.000    404    424    453    483    503    518    533    534    473    397
150.200    370    378    469    572    572    531    493    466    484    519
150.400    547    569    571    558    510    461    474    512    553    590
150.600    599    592    558    528    566    626    655    665    645    625
150.800    670    712    614    494    547    657    704    724    736    742
151.000    739    723    652    580    608    661    641    612    690    785
151.200    758    693    680    685    676    668    687    711    708    702
151.400    733    771    772    756    727    705    743    794    793    781
151.600    814    854    834    805    853    918    916    906    983   1077
151.800   1081   1038    945    845    818    818    807    810    908   1015
152.000    980    912    961   1036   1006    945    940    959    982   1021
152.200   1140   1268   1286   1259   1227   1192   1150   1113   1109   1118
152.400   1121   1125   1149   1188   1267   1356   1418   1465   1489   1499
152.600   1489   1472   1458   1449   1457   1478   1534   1607   1698   1772
152.800   1723   1649   1693   1767   1749   1705   1706   1741   1849   1962
153.000   1949   1892   1871   1860   1821   1807   1976   2175   2158   2069
153.200   2060   2095   2193   2310   2392   2450   2458   2436   2364   2287
153.400   2287   2321   2377   2434   2456   2469   2510   2549   2521   2481
153.600   2506   2547   2531   2508   2557   2624   2639   2631   2612   2612
153.800   2732   2863   2812   2698   2631   2586   2556   2543   2585   2641
154.000   2660   2672   2726   2782   2766   2722   2675   2646   2713   2803
154.200   2812   2798   2834   2879   2870   2850   2877   2891   2748   2592
154.400   2683   2843   2855   2807   2762   2719   2678   2647   2661   2686
154.600   2679   2645   2541   2439   2484   2563   2522   2448   2456   2472
154.800   2371   2244   2222   2233   2196   2146   2131   2133   2155   2177
155.000   2161   2138   2163   2184   2092   1975   1961   1983   1973   1947
155.200   1900   1864   1928   1998   1903   1778   1838   1944   1910   1819
155.400   1726   1647   1643   1663   1648   1638   1715   1798   1741   1655
155.600   1711   1807   1823   1794   1705   1624   1711   1822   1715   1546
155.800   1504   1503   1460   1402   1354   1321   1341   1383   1420   1435
156.000   1342   1230   1238   1285   1290   1274   1236   1196   1186   1187
156.200   1180   1172   1172   1157   1049    922    893    918   1018   1115
156.400   1042    930    956   1028   1045   1045   1067   1080   1008    916
156.600    897    904    891    877    891    907    872    822    803    799
156.800    804    818    863    905    866    815    870    941    872    775
157.000    810    861    732    566    578    652    676    688    740    788
157.200    734    663    704    771    743    689    693    713    690    661
157.400    690    726    682    612    572    552    574    611    646    672
157.600    655    629    645    675    695    696    622    534    529    552
157.800    548    534    515    510    582    663    637    577    554    551
158.000    576    602    575    528    491    475    547    630    590    514
158.200    510    526    503    470    462    471    514    553    508    445
158.400    457    500    547    581    550    500    490    489    455    415
158.600    418    437    448    452    436    421    452    498    519    527
158.800    515    494    468    455    517    594    594    559    499    438
159.000    417    410    385    355    340    336    360    391    394    383
159.200    360    338    343    359    375    399    468    531    479    398
159.400    404    444    484    513    488    455    487    532    507    454
159.600    396    351    378    422    406    373    376    389    377    367
159.800    414    480    524    543    479    398    405    434    395    349
160.000    401    477    475    450    472    503    489    461    453    441
160.200    374    302    320    364    360    344    369    406    417    409
160.400    362    318    363    432    449    435    368    300    337    403
160.600    409    388    352    328    397    481    452    400    456    539
160.800    537    501    462    431    445    462    405    333    328    344
161.000    333    320    347    378    344    300    333    387    394    386
161.200    400    410    358    289    252    241    300    376    400    401
161.400    387    370    370    371    349    323    330    353    391    419
161.600    369    292    238    212    274    359    379    374    373    374
161.800    383    391    377    362    382    404    361    302    288    306
162.000    394    483    434    342    311    307    308    315    334    354
162.200    354    343    317    287    272    264    269    288    349    417
162.400    437    436    433    424    388    344    309    279    259    246
162.600    251    263    275    291    329    367    365    353    371    394
162.800    380    359    370    384    348    303    318    356    396    423
163.000    388    331    289    273    355    450    410    329    312    319
163.200    324    317    252    181    198    247    283    306    294    279
163.400    317    365    353    322    313    312    309    309    329    346
163.600    305    251    250    272    304    329    299    256    256    271
163.800    268    265    297    332    314    279    269    266    248    226
164.000    217    212    202    200    246    305    324    328    332    336
164.200    342    341    305    263    263    277    282    282    271    256
164.400    246    246    289    336    320    288    304    331    310    271
164.600    237    213    230    258    251    231    213    204    240    289
164.800    316    337    370    397    367    318    282    256    245    242
#.iScn. 2                                                .
#.STPi. 0.02                                                .
#.PSIi. 24                                                .
#.FETA. -1                                                                   .
141.000    309    265    241    237    296    358    310    235    240    264
141.200    216    159    194    252    242    214    239    279    287    278
141.400    239    199    206    225    212    191    197    216    253    288
141.600    277    246    215    196    240    297    291    265    272    291
141.800    300    303    288    268    259    251    223    198    228    268
142.000    247    208    209    230    274    321    330    319    284    240
142.200    193    163    226    308    297    251    213    180    154    138
142.400    162    197    210    210    187    160    156    169    217    268
142.600    266    249    269    293    267    225    206    199    209    225
142.800    239    257    292    327    332    326    328    331    316    296
143.000    286    273    225    171    158    176    259    343    294    207
143.200    198    218    230    249    321    399    399    364    317    276
143.400    287    320    358    385    350    296    269    264    312    364
143.600    328    267    264    283    297    310    325    331    285    232
143.800    244    271    241    195    176    182    261    343    290    203
144.000    213    251    241    221    252    299    320    322    287    246
144.200    252    275    296    309    282    254    296    355    359    335
144.400    279    230    276    342    318    277    326    397    390    344
144.600    263    193    256    348    319    247    205    184    208    240
144.800    225    205    257    321    303    261    259    285    369    455
145.000    430    363    311    276    299    335    318    284    273    277
145.200    308    335    287    225    244    289    299    295    290    285
145.400    285    294    338    378    329    267    312    390    418    418
145.600    380    333    322    335    390    449    446    414    362    301
145.800    234    177    188    229    287    340    341    324    321    333
146.000    395    457    422    352    304    278    322    381    373    343
146.200    331    324    299    273    275    294    338    388    415    424
146.400    391    344    312    302    372    462    489    479    410    332
146.600    323    343    374    399    369    322    297    284    286    293
146.800    297    302    322    336    295    245    263    304    318    319
147.000    302    292    355    431    424    383    335    301    349    416
147.200    421    398    360    323    318    329    357    379    346    300
147.400    304    322    308    287    293    300    260    218    258    322
147.600    348    348    301    261    349    457    405    314    348    416
147.800    401    364    385    418    395    353    331    323    345    378
148.000    409    431    413    384    378    392    456    517    458    372
148.200    383    419    385    334    338    363    386    401    379    350
148.400    353    368    381    390    381    359    310    267    306    372
148.600    410    434    453    456    392    328    396    492    470    409
148.800    394    396    387    373    359    349    364    388    414    431
149.000    406    366    333    306    299    304    332    370    405    431
149.200    422    394    348    310    355    418    404    373    406    455
149.400    459    444    427    414    423    444    481    508    447    371
149.600    398    452    431    393    415    445    395    330    347    387
149.800    380    364    398    433    375    294    291    327    398    464
150.000    430    371    384    427    476    513    475    425    465    521
150.200    474    398    385    402    439    478    482    475    483    493
150.400    485    474    491    512    495    473    503    541    522    484
150.600    466    461    479    506    523    537    553    573    611    646
150.800    623    582    569    567    562    553    529    508    537    575
151.000    566    539    517    509    558    611    567    507    555    631
151.200    624    591    591    605    616    628    651    682    725    755
151.400    695    615    618    656    699    741    761    776    806    836
151.600    831    809    767    720    686    670    713    766    759    739
151.800    779    837    865    875    858    829    790    764    815    888
152.000    919    931    935    928    884    838    849    879    890    900
152.200    940    983    981    968    985   1003    963    919    975   1065
152.400   1123   1164   1178   1180   1167   1155   1171   1201   1238   1270
152.600   1264   1244   1235   1238   1276   1321   1328   1327   1363   1407
152.800   1424   1431   1443   1460   1490   1515   1485   1440   1429   1433
153.000   1448   1476   1541   1613   1643   1667   1743   1817   1779   1720
153.200   1774   1861   1882   1885   1933   1981   1944   1876   1828   1811
153.400   1909   2030   2038   2014   2065   2126   2094   2043   2092   2166
153.600   2170   2142   2097   2059   2086   2148   2248   2347   2361   2337
153.800   2293   2253   2270   2295   2248   2185   2184   2223   2340   2462
154.000   2451   2415   2519   2624   2457   2233   2266   2402   2538   2642
154.200   2584   2496   2575   2696   2697   2659   2673   2681   2560   2435
154.400   2542   2719   2781   2780   2697   2584   2483   2427   2574   2756
154.600   2703   2580   2570   2590   2530   2451   2432   2433   2407   2357
154.800   2234   2126   2240   2397   2329   2214   2317   2482   2522   2497
155.000   2397   2277   2205   2164   2177   2211   2250   2261   2129   1980
155.200   2041   2163   2173   2133   2061   1999   2047   2120   2098   2049
155.400   2050   2056   1984   1886   1818   1777   1813   1861   1820   1757
155.600   1756   1784   1834   1860   1731   1582   1646   1772   1775   1727
155.800   1672   1623   1617   1632   1662   1693   1696   1682   1636   1591
156.000   1609   1638   1587   1522   1539   1563   1457   1312   1233   1208
156.200   1317   1440   1371   1247   1233   1253   1223   1188   1228   1279
156.400   1235   1175   1225   1295   1245   1162   1154   1171   1165   1150
156.600   1138   1123   1083   1038   1018   1004    970    935    937    951
156.800    953    953    960    970    980    982    944    887    818    755
157.000    747    759    761    772    850    934    920    875    876    886
157.200    846    795    789    805    838    866    834    782    752    733
157.400    729    720    659    598    642    717    735    732    734    735
157.600    718    690    644    594    564    553    602    661    657    635
157.800    658    690    685    664    637    613    619    630    609    583
158.000    595    623    651    672    653    620    592    560    498    451
158.200    539    658    659    623    638    666    649    620    613    607
158.400    566    521    531    566    619    649    529    389    448    565
158.600    578    549    510    485    542    602    517    407    467    567
158.800    525    449    481    538    499    438    463    508    475    422
159.000    424    450    489    520    485    427    389    371    416    468
159.200    428    369    390    441    479    509    529    530    458    377
159.400    404    467    493    503    503    501    508    513    498    476
159.600    462    457    479    501    473    430    415    412    413    415
159.800    418    417    390    356    347    353    392    445    503    543
160.000    480    388    358    360    403    453    453    429    384    339
160.200    342    370    426    481    466    431    431    435    391    342
160.400    370    417    414    388    354    317    290    270    270    289
160.600    363    444    452    439    472    509    471    414    411    424
160.800    415    398    386    387    440    493    444    371    383    419
161.000    402    376    410    452    414    360    389    448    489    507
161.200    450    371    337    320    301    289    314    348    354    349
161.400    350    357    379    397    362    320    351    400    391    361
161.600    343    334    355    386    410    426    414    389    357    332
161.800    352    383    379    357    317    280    301    339    344    339
162.000    352    366    345    314    295    284    291    313    373    435
162.200    426    395    399    409    382    344    326    315    301    292
162.400    318    352    354    343    329    318    330    345    325    298
162.600    304    328    369    412    430    432    406    367    326    286
162.800    254    235    256    296    344    385    368    340    372    413
163.000    377    322    319    332    323    302    268    237    249    275
163.200    278    267    234    204    231    275    289    298    347    391
163.400    335    259    285    335    305    260    305    361    297    215
163.600    285    392    389    349    351    364    355    335    307    276
163.800    252    233    232    236    227    223    274    332    320    284
164.000    270    269    293    327    366    391    341    265    209    181
164.200    253    342    318    253    214    190    181    188    237    285
164.400    248    187    183    205    247    295    338    361    299    221
164.600    233    273    273    256    236    215    204    195    179    168
164.800    194    231    255    262    215    169    228    310    290    237
#.iScn. 3                                                .
#.STPi. 0.02                                                .
#.PSIi. 35                                                .
#.FETA. -1                                                                   .
141.000    240    272    252    211    167    131    143    172    184    193
141.200    214    230    194    148    150    179    242    299    266    196
141.400    129     88    169    280    294    264    201    142    168    226
141.600    275    317    334    338    324    296    236    177    185    217
141.800    239    257    275    286    260    217    161    109    110    142
142.000    223    299    255    181    198    236    193    142    219    327
142.200    337    301    237    174    181    204    175    135    145    176
142.400    212    247    267    275    252    223    230    246    227    205
142.600    235    274    260    226    202    189    212    243    236    211
142.800    174    146    188    250    269    268    255    240    237    230
143.000    176    121    153    208    208    198    246    298    250    173
143.200    148    143    134    137    205    287    308    293    226    158
143.400    190    245    217    169    193    241    269    286    288    276
143.600    225    169    158    165    167    168    171    176    191    207
143.800    213    217    231    243    227    210    251    307    321    315
144.000    289    259    244    241    265    290    270    236    220    214
144.200    220    232    252    270    260    235    197    160    158    171
144.400    194    220    248    264    220    163    166    193    225    249
144.600    221    186    214    258    249    229    257    291    253    196
144.800    184    186    168    156    213    283    286    270    296    333
145.000    347    353    372    381    317    238    236    264    297    326
145.200    333    329    312    298    326    356    317    272    331    412
145.400    403    354    290    235    253    295    304    301    303    305
145.600    302    295    286    285    326    370    346    304    313    342
145.800    363    380    390    394    375    348    329    315    313    312
146.000    296    279    285    308    363    414    380    322    315    329
146.200    343    352    331    311    351    398    360    296    274    272
146.400    290    312    317    311    282    248    237    239    261    291
146.600    320    336    295    245    267    305    283    252    298    366
146.800    399    405    354    286    247    235    304    388    381    338
147.000    305    283    304    336    338    322    273    224    242    277
147.200    267    255    323    405    400    365    355    352    332    313
147.400    324    344    346    343    358    375    364    336    281    229
147.600    244    281    296    298    275    255    295    349    353    334
147.800    300    271    299    348    392    425    411    380    354    328
148.000    294    263    267    283    291    302    351    404    399    379
148.200    402    429    393    335    299    276    281    289    259    229
148.400    282    365    430    472    436    371    322    291    310    352
148.600    404    442    387    316    353    413    370    303    321    361
148.800    346    318    340    367    317    250    245    265    286    315
149.000    376    430    387    315    288    285    305    333    346    343
149.200    287    227    257    316    343    355    354    349    352    351
149.400    310    267    287    325    323    307    301    308    359    417
149.600    425    410    381    354    361    375    364    346    350    360
149.800    360    359    378    398    390    367    330    302    339    388
150.000    360    315    335    377    396    405    411    408    370    328
150.200    336    367    413    453    434    398    387    382    352    330
150.400    400    495    533    546    541    526    497    463    426    394
150.600    395    415    462    511    517    507    507    511    520    537
150.800    587    635    603    542    496    470    514    579    609    614
151.000    562    502    511    547    586    624    650    667    659    635
151.200    578    521    532    562    549    530    566    605    547    476
151.400    532    616    590    532    536    560    564    566    599    633
151.600    607    567    574    599    617    628    611    600    675    748
151.800    633    483    536    646    635    590    623    690    769    834
152.000    809    755    744    747    732    724    788    860    835    777
152.200    751    750    814    883    845    774    748    749    793    843
152.400    830    795    775    783    899   1025    981    890    904    950
152.600    943    920    922    934    951    984   1090   1200   1178   1111
152.800   1079   1080   1176   1282   1248   1179   1215   1272   1219   1144
153.000   1176   1247   1306   1359   1404   1442   1458   1465   1467   1469
153.200   1481   1493   1485   1476   1500   1545   1622   1687   1627   1535
153.400   1533   1584   1718   1848   1790   1670   1622   1628   1769   1936
153.600   1971   1946   1886   1835   1894   1980   1976   1934   1880   1840
153.800   1885   1962   2021   2059   2028   1977   1960   1962   1999   2044
154.000   2062   2074   2104   2159   2298   2415   2260   2052   2124   2290
154.200   2363   2388   2361   2318   2297   2299   2371   2455   2459   2435
154.400   2436   2454   2514   2567   2506   2432   2518   2627   2530   2385
154.600   2418   2512   2556   2574   2564   2544   2536   2516   2421   2292
154.800   2151   2054   2197   2391   2353   2249   2272   2330   2311   2273
155.000   2292   2323   2299   2257   2233   2224   2252   2262   2112   1925
155.200   1873   1900   2055   2223   2196   2116   2153   2216   2174   2088
155.400   1995   1922   1966   2040   2036   2000   1969   1956   2026   2105
155.600   2061   1993   2057   2149   2126   2059   2010   1961   1876   1807
155.800   1896   2021   2011   1954   1934   1893   1677   1455   1556   1738
156.000   1679   1545   1524   1539   1507   1477   1547   1641   1654   1620
156.200   1519   1406   1366   1350   1301   1254   1284   1336   1351   1349
156.400   1339   1329   1339   1351   1333   1297   1234   1181   1233   1306
156.600   1273   1204   1175   1167   1189   1217   1215   1195   1145   1083
156.800   1019    966    965    976    943    903    912    933    919    899
157.000    920    960   1005   1042   1022    975    903    837    851    884
157.200    847    796    808    847    890    926    925    906    870    827
157.400    779    732    695    675    715    772    791    794    792    774
157.600    687    589    571    581    570    555    568    598    656    713
157.800    704    672    660    661    688    714    675    621    614    618
158.000    587    556    602    657    607    534    557    609    608    594
158.200    623    654    610    538    473    433    503    615    720    788
158.400    685    540    533    572    564    537    504    478    503    537
158.600    508    465    475    499    481    450    429    425    481    543
158.800    512    455    458    472    429    381    418    484    517    531
159.000    515    490    480    480    501    529    544    541    471    392
159.200    400    437    452    458    459    461    470    480    483    476
159.400    432    390    428    483    460    415    418    436    431    417
159.600    401    387    385    398    466    533    487    405    378    377
159.800    404    439    456    459    429    390    376    372    369    374
160.000    411    451    444    422    417    406    330    256    322    424
160.200    426    405    469    545    511    428    318    224    262    340
160.400    360    362    399    430    366    285    312    368    351    316
160.600    336    382    446    499    459    396    411    446    421    384
160.800    402    431    402    363    392    441    455    452    432    408
161.000    389    372    350    340    397    463    442    390    360    346
161.200    372    404    384    352    358    372    345    307    299    304
161.400    315    322    293    259    275    309    334    352    345    331
161.600    329    340    396    446    374    273    269    299    307    303
161.800    281    256    254    268    310    356    359    346    338    327
162.000    293    263    303    358    353    321    282    251    274    305
162.200    276    233    247    284    329    366    348    314    312    315
162.400    285    250    265    291    279    259    284    317    303    271
162.600    241    221    249    285    261    232    298    377    328    246
162.800    255    299    332    355    356    349    344    339    332    320
163.000    285    249    253    273    296    324    374    419    401    360
163.200    335    314    275    236    232    250    306    369    385    380
163.400    355    331    344    358    303    245    306    393    376    324
163.600    299    288    295    314    357    386    305    197    179    202
163.800    248    296    304    298    299    294    247    195    200    226
164.000    247    259    244    222    215    221    255    287    244    189
164.200    221    281    313    326    304    277    295    316    267    201
164.400    193    204    188    164    149    149    209    281    293    280
164.600    263    249    254    260    237    212    232    256    210    154
164.800    188    245    234    203    210    231    242    251    267    280
#.iScn. 4                                                .
#.STPi. 0.02                                                .
#.PSIi. 45                                                .
#.FETA. -1                                                                   .
141.000    257    231    243    262    236    204    229    276    321    352
141.200    317    267    280    313    323    323    326    320    261    201
141.400    243    311    314    298    325    352    291    210    202    232
141.600    302    373    371    335    279    233    275    334    298    235
141.800    227    243    266    282    253    223    281    355    329    275
142.000    279    303    302    292    284    277    278    282    286    285
142.200    254    221    235    260    252    235    248    271    287    303
142.400    327    350    345    325    287    247    242    246    233    222
142.600    253    294    303    300    297    289    253    206    166    144
142.800    203    278    263    210    142     89    141    227    273    303
143.000    330    350    343    331    351    377    375    359    336    322
143.200    365    415    386    329    282    245    233    232    238    240
143.400    214    186    209    249    266    270    252    231    235    255
143.600    305    352    322    272    272    288    283    273    286    305
143.800    306    292    243    191    202    239    281    319    322    316
144.000    328    345    346    333    286    243    282    339    321    283
144.200    295    326    350    367    357    336    309    274    217    169
144.400    213    292    368    427    412    367    312    254    193    148
144.600    191    263    303    331    358    377    361    330    294    266
144.800    288    329    370    399    375    326    267    220    258    321
145.000    342    346    347    349    361    368    330    278    248    240
145.200    302    364    289    196    290    432    446    413    405    399
145.400    353    302    309    343    395    437    389    320    325    349
145.600    328    298    321    362    388    397    346    280    252    257
145.800    342    439    433    388    360    345    366    399    414    419
146.000    407    386    350    312    292    291    344    402    385    339
146.200    305    276    257    247    267    300    340    373    361    338
146.400    351    368    325    275    303    355    364    357    353    345
146.600    309    265    239    231    273    326    336    328    323    325
146.800    352    396    470    527    439    318    319    362    370    364
147.000    363    366    386    419    487    550    519    454    403    362
147.200    351    349    335    338    443    557    512    416    377    359
147.400    333    302    271    259    345    442    391    298    290    315
147.600    336    353    355    350    339    330    346    365    354    330
147.800    306    290    316    357    394    425    428    422    428    433
148.000    416    389    359    339    381    433    418    387    411    453
148.200    475    477    417    354    391    452    430    387    407    435
148.400    370    293    346    426    384    311    325    366    370    364
148.600    375    399    456    499    409    292    312    384    451    498
148.800    463    393    312    243    260    314    373    424    420    401
149.000    414    433    417    393    402    412    364    310    344    408
149.200    440    453    430    394    373    358    351    350    359    382
149.400    448    507    440    344    358    410    432    437    422    401
149.600    398    405    422    439    428    407    394    391    425    472
149.800    517    563    616    651    583    480    413    374    400    445
150.000    455    451    442    439    468    507    532    537    466    393
150.200    468    569    503    396    414    465    428    372    394    454
150.400    541    627    658    658    621    569    514    466    456    467
150.600    500    529    496    450    462    497    526    544    522    493
150.800    512    541    527    501    507    524    537    549    556    560
151.000    551    539    540    540    510    477    487    519    570    618
151.200    621    615    659    709    691    649    628    617    608    608
151.400    651    704    719    714    687    652    617    589    588    607
151.600    672    738    709    666    735    819    753    645    630    655
151.800    697    747    809    863    858    826    773    713    668    643
152.000    691    759    777    773    757    749    800    855    816    753
152.200    755    783    810    826    792    755    804    873    866    836
152.400    847    866    840    811    857    921    924    901    874    851
152.600    850    869    946   1034   1062   1071   1100   1125   1085   1024
152.800    986    973   1034   1123   1212   1278   1232   1147   1087   1042
153.000   1020   1025   1112   1206   1173   1113   1168   1262   1318   1350
153.200   1345   1330   1335   1357   1421   1491   1513   1511   1492   1459
153.400   1393   1350   1494   1668   1625   1513   1488   1501   1534   1581
153.600   1665   1732   1647   1540   1630   1773   1791   1757   1715   1689
153.800   1763   1872   1957   2020   2013   1977   1929   1895   1951   2039
154.000   2102   2152   2182   2188   2116   2032   2050   2101   2118   2125
154.200   2147   2172   2181   2181   2172   2173   2239   2306   2247   2171
154.400   2265   2413   2492   2516   2400   2271   2356   2497   2493   2442
154.600   2449   2477   2492   2492   2447   2388   2354   2335   2344   2364
154.800   2383   2410   2483   2542   2435   2302   2377   2495   2415   2287
155.000   2321   2395   2350   2280   2319   2390   2406   2394   2352   2299
155.200   2251   2218   2255   2305   2287   2249   2256   2279   2299   2306
155.400   2259   2194   2143   2099   2070   2066   2164   2283   2308   2287
155.600   2220   2145   2125   2122   2099   2077   2108   2150   2137   2099
155.800   2038   1969   1910   1884   2006   2149   2095   1974   1905   1852
156.000   1777   1704   1686   1692   1707   1734   1811   1885   1847   1769
156.200   1709   1658   1612   1576   1575   1588   1593   1595   1597   1598
156.400   1599   1587   1513   1435   1455   1502   1483   1447   1462   1479
156.600   1400   1290   1221   1188   1245   1323   1321   1293   1292   1299
156.800   1292   1298   1393   1473   1304   1080   1071   1121   1033    929
157.000   1028   1173   1143   1062   1076   1121   1131   1131   1146   1150
157.200   1062    957    942    961    965    954    895    834    858    907
157.400    916    906    886    865    862    867    872    874    853    841
157.600    920   1011    976    891    816    762    801    871    906    916
157.800    868    810    825    856    821    776    817    881    884    865
158.000    864    862    820    757    667    592    639    726    768    778
158.200    721    651    651    676    683    681    667    655    671    691
158.400    666    628    607    608    689    773    715    618    604    627
158.600    664    695    672    643    688    738    668    563    524    519
158.800    546    577    561    533    535    545    535    528    574    635
159.000    661    668    650    621    586    554    555    566    562    539
159.200    453    370    434    545    606    629    569    489    479    491
159.400    474    448    432    429    470    522    549    549    472    382
159.600    382    414    421    422    436    447    408    361    369    399
159.800    429    464    522    572    531    459    418    396    403    418
160.000    421    420    426    428    402    369    361    375    454    529
160.200    461    359    377    431    426    405    418    435    410    364
160.400    296    246    321    424    414    369    379    411    446    473
160.600    450    421    457    512    534    535    504    461    418    387
160.800    411    453    472    479    476    462    416    373    405    458
161.000    468    467    503    540    517    477    475    491    517    532
161.200    470    398    423    469    425    360    372    398    344    268
161.400    247    262    355    456    441    388    381    395    414    422
161.600    362    290    301    340    349    352    380    404    360    302
161.800    312    348    376    397    403    402    396    400    462    523
162.000    457    362    367    406    412    407    419    432    425    410
162.200    398    395    425    458    431    383    342    310    313    339
162.400    413    484    442    361    318    292    271    272    365    471
162.600    458    413    440    482    452    409    443    497    501    480
162.800    432    387    404    443    467    466    370    255    235    258
163.000    309    360    358    343    376    407    330    226    202    213
163.200    241    272    289    303    326    348    350    340    310    285
163.400    328    385    374    346    369    398    349    288    320    379
163.600    385    368    346    333    375    419    366    292    305    342
163.800    326    288    251    225    244    281    313    333    300    254
164.000    253    276    336    396    386    350    329    322    362    408
164.200    399    368    345    332    351    374    350    314    306    311
164.400    321    336    361    380    341    291    302    336    355    359
164.600    311    261    300    360    350    319    323    341    360    378
164.800    381    371    321    270    291    335    349    336    249    163
#.EOFm.                                                                      .
