#.DATE. 2018-06-22 21:45:08                                                  .
#.GTkV. 25                                                                   .
#.GCmA. 30                                                                   .
#.WLa1. 2.2907                                                              .
#.ANFG. 138                                                                  .
#.ENDE. 162                                                                  .
#.STEP. 0.02                                                                 .
#.t/St. 1                                                                 .
#.nScn. 2                                                             .
#.MaxI. 3776                                                .
#.    .                                                                      .
#.iScn. 1                                                .
#.STPi. 0.02                                                .
#.PSIi. 0                                                .
#.FETA. -1                                                                   .
137.200   1280   1231   1192   1166   1194   1230   1209   1169   1145   1140
137.400   1187   1244   1246   1225   1201   1182   1201   1226   1206   1172
137.600   1157   1152   1163   1186   1231   1280   1304   1301   1211   1105
137.800   1087   1103   1104   1104   1127   1160   1197   1228   1227   1211
138.000   1185   1167   1211   1263   1233   1178   1157   1139   1074   1016
138.200   1088   1188   1166   1113   1144   1198   1203   1199   1245   1296
138.400   1271   1214   1152   1103   1130   1178   1176   1162   1187   1223
138.600   1244   1252   1235   1214   1228   1254   1268   1271   1238   1197
138.800   1194   1210   1250   1292   1305   1305   1295   1286   1301   1310
139.000   1249   1166   1118   1087   1069   1060   1068   1080   1085   1095
139.200   1145   1196   1171   1130   1170   1230   1229   1204   1182   1166
139.400   1168   1191   1276   1357   1294   1189   1160   1164   1189   1220
139.600   1236   1238   1195   1142   1124   1129   1181   1228   1158   1061
139.800   1059   1096   1140   1180   1193   1194   1188   1182   1187   1193
140.000   1188   1185   1204   1226   1220   1205   1206   1211   1196   1177
140.200   1170   1169   1178   1194   1232   1271   1273   1253   1193   1131
140.400   1142   1176   1177   1167   1164   1166   1183   1203   1213   1215
140.600   1200   1181   1177   1182   1202   1218   1183   1139   1154   1186
140.800   1175   1145   1107   1082   1142   1221   1228   1209   1202   1199
141.000   1191   1185   1204   1223   1195   1155   1142   1143   1159   1173
141.200   1152   1136   1218   1313   1270   1182   1147   1133   1119   1110
141.400   1125   1148   1169   1194   1242   1293   1304   1294   1256   1215
141.600   1222   1245   1253   1250   1219   1192   1240   1303   1293   1257
141.800   1242   1241   1262   1286   1283   1273   1283   1305   1345   1382
142.000   1359   1316   1288   1272   1283   1303   1315   1320   1315   1306
142.200   1305   1307   1306   1302   1293   1282   1278   1275   1270   1267
142.400   1279   1297   1315   1323   1278   1227   1251   1302   1340   1353
142.600   1274   1187   1247   1345   1341   1302   1288   1284   1276   1268
142.800   1255   1246   1260   1278   1265   1244   1248   1260   1265   1263
143.000   1241   1225   1277   1341   1325   1288   1301   1329   1322   1306
143.200   1310   1321   1325   1325   1315   1301   1284   1269   1269   1281
143.400   1325   1366   1333   1281   1276   1292   1318   1340   1325   1294
143.600   1258   1225   1217   1219   1220   1214   1183   1162   1248   1351
143.800   1332   1277   1284   1308   1293   1273   1305   1347   1341   1323
144.000   1348   1376   1334   1272   1247   1240   1253   1271   1279   1278
144.200   1252   1226   1252   1292   1300   1299   1316   1332   1308   1284
144.400   1341   1402   1331   1233   1267   1338   1332   1301   1293   1303
144.600   1353   1399   1342   1256   1233   1236   1244   1248   1219   1190
144.800   1229   1281   1260   1229   1293   1372   1337   1264   1221   1200
145.000   1219   1251   1260   1266   1307   1339   1262   1159   1140   1160
145.200   1215   1278   1314   1325   1260   1188   1237   1325   1360   1365
145.400   1328   1286   1301   1326   1286   1231   1234   1265   1320   1361
145.600   1287   1182   1152   1156   1183   1218   1248   1267   1245   1213
145.800   1221   1238   1219   1200   1243   1305   1340   1357   1333   1300
146.000   1303   1319   1325   1320   1278   1244   1319   1415   1399   1349
146.200   1345   1355   1334   1304   1296   1289   1247   1198   1187   1182
146.400   1132   1087   1155   1253   1269   1269   1346   1428   1378   1295
146.600   1309   1356   1376   1378   1335   1283   1274   1281   1280   1283
146.800   1319   1362   1367   1357   1349   1348   1385   1431   1444   1447
147.000   1470   1487   1439   1380   1399   1437   1414   1372   1365   1362
147.200   1316   1258   1235   1229   1243   1263   1276   1290   1326   1361
147.400   1349   1318   1281   1255   1300   1360   1350   1324   1360   1411
147.600   1417   1400   1356   1316   1346   1388   1347   1294   1347   1426
147.800   1415   1373   1349   1334   1323   1326   1394   1462   1403   1323
148.000   1395   1492   1416   1296   1306   1363   1397   1414   1397   1370
148.200   1357   1355   1386   1422   1414   1383   1316   1261   1339   1448
148.400   1440   1395   1393   1404   1389   1361   1326   1296   1304   1329
148.600   1356   1380   1386   1378   1345   1310   1323   1364   1447   1523
148.800   1479   1409   1447   1518   1533   1519   1475   1427   1424   1443
149.000   1485   1521   1474   1404   1391   1399   1410   1423   1437   1446
149.200   1419   1387   1407   1430   1371   1305   1367   1466   1487   1472
149.400   1434   1396   1409   1439   1449   1451   1448   1444   1440   1442
149.600   1477   1521   1546   1562   1583   1588   1508   1421   1470   1555
149.800   1538   1495   1518   1563   1594   1607   1557   1496   1510   1551
150.000   1577   1591   1575   1544   1496   1448   1428   1437   1530   1633
150.200   1626   1577   1545   1524   1528   1539   1536   1544   1633   1726
150.400   1689   1614   1614   1637   1630   1620   1663   1719   1732   1732
150.600   1754   1780   1788   1780   1737   1685   1666   1663   1672   1690
150.800   1731   1776   1796   1804   1801   1792   1777   1766   1777   1790
151.000   1766   1748   1827   1916   1863   1778   1820   1894   1880   1849
151.200   1915   1992   1935   1846   1864   1935   2065   2184   2139   2033
151.400   1944   1874   1864   1900   2048   2213   2248   2222   2157   2094
151.600   2116   2168   2201   2215   2179   2141   2198   2298   2429   2544
151.800   2513   2437   2434   2454   2444   2443   2542   2665   2700   2703
152.000   2724   2747   2742   2728   2727   2725   2695   2660   2665   2700
152.200   2808   2918   2883   2802   2780   2801   2928   3067   3050   2989
152.400   3026   3095   3131   3127   2993   2847   2901   3025   3102   3160
152.600   3215   3273   3353   3424   3411   3373   3372   3399   3491   3581
152.800   3529   3449   3511   3616   3657   3672   3681   3677   3621   3557
153.000   3555   3576   3595   3604   3568   3528   3558   3605   3597   3572
153.200   3567   3553   3447   3360   3548   3776   3656   3446   3488   3609
153.400   3628   3610   3612   3614   3571   3530   3584   3665   3691   3695
153.600   3699   3693   3637   3579   3613   3668   3648   3598   3548   3499
153.800   3457   3409   3322   3247   3307   3393   3338   3246   3260   3312
154.000   3343   3357   3331   3284   3215   3158   3205   3273   3242   3178
154.200   3141   3119   3119   3118   3072   3026   3071   3120   3001   2835
154.400   2771   2745   2712   2688   2722   2776   2810   2831   2825   2802
154.600   2741   2678   2682   2716   2772   2805   2688   2538   2528   2566
154.800   2562   2551   2583   2617   2570   2498   2469   2461   2471   2474
155.000   2402   2316   2307   2315   2253   2176   2165   2169   2107   2042
155.200   2097   2178   2157   2108   2122   2165   2218   2259   2215   2150
155.400   2145   2160   2147   2136   2191   2243   2142   2006   2000   2037
155.600   2029   1999   1947   1903   1937   1990   1975   1933   1892   1864
155.800   1891   1930   1914   1872   1809   1749   1754   1774   1744   1703
156.000   1712   1744   1796   1841   1808   1756   1771   1803   1798   1774
156.200   1727   1685   1714   1759   1739   1693   1647   1607   1597   1600
156.400   1605   1612   1627   1633   1576   1520   1599   1705   1679   1607
156.600   1565   1537   1518   1511   1554   1606   1608   1591   1580   1567
156.800   1526   1488   1524   1581   1606   1610   1574   1537   1573   1625
157.000   1607   1574   1606   1657   1673   1662   1581   1490   1486   1518
157.200   1565   1601   1557   1493   1487   1504   1513   1523   1558   1590
157.400   1564   1517   1483   1461   1467   1466   1369   1268   1343   1473
157.600   1518   1517   1449   1378   1422   1485   1408   1301   1316   1372
157.800   1389   1395   1420   1442   1414   1364   1309   1271   1336   1430
158.000   1459   1463   1469   1468   1433   1395   1404   1420   1376   1315
158.200   1291   1282   1280   1288   1342   1403   1406   1386   1368   1349
158.400   1330   1321   1369   1422   1393   1335   1294   1269   1292   1333
158.600   1369   1396   1390   1373   1371   1375   1382   1389   1390   1389
158.800   1395   1398   1375   1343   1312   1288   1309   1337   1317   1286
159.000   1306   1343   1360   1367   1356   1334   1293   1260   1302   1373
159.200   1436   1476   1416   1323   1263   1227   1238   1268   1301   1332
159.400   1345   1341   1290   1235   1252   1291   1293   1284   1287   1302
159.600   1355   1396   1304   1190   1238   1333   1343   1319   1294   1278
159.800   1299   1330   1334   1328   1322   1317   1314   1316   1338   1352
160.000   1289   1212   1222   1266   1308   1348   1375   1381   1305   1215
160.200   1215   1250   1280   1304   1310   1306   1290   1275   1283   1293
160.400   1258   1216   1226   1259   1307   1349   1333   1295   1268   1245
160.600   1219   1204   1251   1306   1281   1231   1222   1227   1214   1203
160.800   1241   1291   1314   1325   1331   1336   1344   1342   1280   1216
161.000   1262   1344   1383   1394   1351   1295   1274   1279   1338   1397
#.iScn. 2                                                .
#.STPi. 0.02                                                .
#.PSIi. 15                                                .
#.FETA. -1                                                                   .
137.200   1160   1145   1162   1181   1147   1103   1120   1157   1166   1172
137.400   1218   1267   1251   1217   1225   1243   1236   1217   1191   1167
137.600   1163   1170   1192   1208   1160   1103   1116   1150   1143   1125
137.800   1142   1183   1281   1375   1340   1262   1221   1205   1240   1284
138.000   1263   1232   1278   1333   1283   1202   1180   1186   1227   1267
138.200   1237   1185   1163   1152   1139   1129   1139   1158   1181   1197
138.400   1176   1153   1193   1247   1243   1216   1197   1188   1209   1237
138.600   1235   1223   1216   1214   1220   1234   1270   1299   1256   1197
138.800   1198   1213   1170   1130   1225   1344   1316   1242   1227   1228
139.000   1199   1165   1174   1200   1223   1238   1220   1196   1218   1254
139.200   1269   1268   1230   1188   1196   1219   1215   1213   1271   1340
139.400   1344   1318   1272   1222   1191   1181   1244   1323   1337   1325
139.600   1311   1284   1192   1091   1077   1090   1066   1051   1151   1274
139.800   1282   1248   1236   1233   1235   1243   1269   1294   1274   1239
140.000   1217   1203   1193   1192   1226   1268   1281   1287   1311   1337
140.200   1330   1300   1222   1132   1083   1071   1158   1257   1226   1152
140.400   1132   1145   1228   1313   1275   1205   1226   1275   1274   1255
140.600   1239   1227   1224   1225   1237   1246   1214   1168   1135   1115
140.800   1135   1162   1142   1108   1093   1092   1131   1174   1165   1144
141.000   1168   1206   1224   1230   1211   1181   1141   1119   1205   1314
141.200   1315   1272   1224   1184   1194   1223   1248   1273   1302   1319
141.400   1272   1218   1251   1300   1254   1190   1228   1293   1294   1266
141.600   1215   1168   1182   1222   1261   1295   1312   1323   1341   1345
141.800   1271   1178   1152   1161   1218   1281   1277   1247   1215   1191
142.000   1204   1235   1281   1330   1368   1392   1375   1338   1275   1214
142.200   1220   1251   1280   1296   1250   1199   1242   1305   1284   1239
142.400   1234   1255   1321   1383   1338   1262   1247   1244   1189   1140
142.600   1224   1336   1320   1259   1233   1224   1228   1237   1240   1245
142.800   1280   1320   1328   1321   1303   1274   1225   1182   1217   1271
143.000   1262   1232   1225   1221   1184   1155   1236   1342   1355   1331
143.200   1306   1293   1330   1367   1296   1204   1227   1286   1298   1288
143.400   1258   1229   1242   1272   1305   1338   1361   1372   1340   1299
143.600   1303   1312   1257   1191   1195   1221   1214   1200   1216   1241
143.800   1249   1252   1255   1265   1303   1340   1314   1273   1285   1312
144.000   1299   1275   1273   1271   1234   1190   1190   1216   1292   1374
144.200   1391   1374   1320   1270   1308   1363   1323   1261   1279   1322
144.400   1327   1317   1312   1310   1316   1323   1313   1294   1259   1226
144.600   1238   1268   1301   1332   1345   1346   1322   1290   1269   1265
144.800   1316   1382   1405   1394   1301   1206   1264   1357   1310   1225
145.000   1227   1257   1259   1251   1251   1252   1240   1215   1157   1107
145.200   1170   1261   1267   1243   1241   1238   1188   1131   1129   1150
145.400   1174   1204   1249   1288   1260   1212   1192   1195   1248   1300
145.600   1241   1166   1241   1358   1388   1379   1347   1308   1284   1262
145.800   1221   1180   1171   1180   1216   1254   1254   1239   1230   1230
146.000   1262   1299   1303   1287   1239   1190   1200   1226   1222   1213
146.200   1240   1282   1323   1354   1345   1326   1342   1354   1279   1190
146.400   1208   1257   1251   1232   1258   1302   1342   1369   1328   1280
146.600   1335   1412   1395   1345   1332   1335   1356   1386   1429   1463
146.800   1424   1350   1244   1165   1283   1447   1451   1392   1340   1305
147.000   1345   1403   1399   1365   1299   1238   1264   1318   1340   1360
147.200   1427   1489   1429   1338   1330   1356   1380   1403   1420   1425
147.400   1385   1339   1354   1381   1342   1289   1306   1345   1362   1371
147.600   1380   1390   1399   1398   1353   1313   1383   1473   1442   1373
147.800   1364   1368   1320   1271   1321   1394   1395   1375   1398   1434
148.000   1447   1438   1366   1292   1338   1415   1407   1378   1415   1471
148.200   1482   1467   1409   1350   1374   1416   1373   1319   1372   1444
148.400   1399   1320   1309   1323   1328   1325   1310   1300   1340   1405
148.600   1493   1567   1521   1441   1431   1452   1485   1513   1494   1460
148.800   1443   1432   1419   1405   1391   1380   1381   1382   1359   1337
149.000   1362   1405   1445   1473   1451   1420   1449   1490   1473   1437
149.200   1421   1410   1384   1367   1425   1492   1453   1388   1395   1423
149.400   1411   1396   1448   1505   1460   1392   1409   1447   1417   1372
149.600   1397   1437   1417   1383   1403   1443   1484   1509   1449   1384
149.800   1461   1574   1580   1548   1540   1532   1489   1440   1436   1445
150.000   1432   1420   1456   1502   1495   1478   1520   1571   1557   1522
150.200   1512   1515   1536   1559   1559   1555   1583   1608   1557   1499
150.400   1546   1625   1646   1635   1582   1538   1621   1723   1667   1575
150.600   1629   1730   1773   1776   1694   1597   1593   1630   1680   1741
150.800   1824   1890   1824   1725   1721   1757   1803   1842   1824   1798
151.000   1839   1892   1868   1822   1811   1816   1824   1842   1902   1962
151.200   1946   1898   1855   1817   1799   1803   1878   1958   1911   1831
151.400   1826   1853   1882   1915   1965   2025   2106   2177   2153   2095
151.600   2059   2041   2070   2108   2095   2081   2154   2249   2282   2288
151.800   2281   2279   2327   2389   2423   2450   2505   2549   2480   2390
152.000   2418   2503   2630   2748   2739   2681   2631   2593   2597   2622
152.200   2670   2717   2706   2682   2711   2765   2838   2911   2949   2962
152.400   2921   2873   2895   2931   2894   2847   2895   2973   3013   3038
152.600   3069   3096   3085   3053   2994   2966   3148   3380   3444   3441
152.800   3441   3428   3335   3240   3293   3395   3444   3463   3439   3405
153.000   3414   3444   3494   3547   3573   3601   3688   3764   3672   3537
153.200   3526   3557   3543   3513   3494   3505   3652   3826   3858   3828
153.400   3768   3688   3563   3444   3438   3478   3518   3558   3592   3618
153.600   3614   3601   3603   3616   3655   3701   3727   3721   3595   3443
153.800   3400   3400   3405   3402   3354   3303   3330   3375   3355   3312
154.000   3279   3254   3248   3248   3254   3271   3330   3385   3337   3257
154.200   3227   3220   3226   3224   3152   3071   3083   3105   2984   2837
154.400   2848   2912   2926   2918   2895   2871   2871   2879   2890   2890
154.600   2827   2748   2713   2711   2780   2846   2767   2642   2580   2548
154.800   2536   2534   2542   2549   2531   2508   2507   2513   2510   2510
155.000   2539   2572   2570   2546   2485   2411   2347   2294   2274   2266
155.200   2248   2222   2175   2138   2197   2275   2255   2206   2214   2232
155.400   2190   2124   2063   2018   2044   2096   2123   2128   2065   1992
155.600   2005   2040   2007   1955   1943   1941   1911   1876   1877   1894
155.800   1910   1915   1864   1802   1790   1787   1728   1661   1669   1708
156.000   1755   1800   1815   1821   1840   1852   1805   1744   1744   1757
156.200   1715   1662   1663   1685   1710   1725   1684   1621   1566   1521
156.400   1511   1530   1622   1717   1675   1603   1650   1716   1645   1540
156.600   1540   1579   1605   1614   1566   1503   1475   1466   1480   1498
156.800   1485   1473   1533   1617   1680   1724   1703   1662   1644   1642
157.000   1669   1702   1712   1708   1687   1655   1603   1548   1520   1508
157.200   1529   1551   1513   1462   1463   1480   1475   1466   1481   1507
157.400   1544   1579   1574   1550   1504   1461   1475   1507   1517   1517
157.600   1504   1488   1482   1481   1485   1495   1530   1567   1567   1557
157.800   1567   1581   1570   1551   1539   1528   1512   1496   1495   1492
158.000   1456   1422   1471   1537   1521   1472   1418   1370   1361   1363
158.200   1346   1338   1405   1486   1482   1441   1385   1339   1375   1430
158.400   1420   1399   1453   1518   1486   1423   1395   1383   1381   1375
158.600   1329   1284   1326   1397   1445   1467   1412   1334   1293   1275
158.800   1298   1334   1345   1348   1358   1371   1389   1406   1410   1399
159.000   1346   1288   1292   1317   1325   1331   1356   1376   1339   1293
159.200   1315   1355   1342   1316   1333   1364   1380   1379   1322   1254
159.400   1247   1261   1255   1247   1268   1297   1311   1321   1342   1362
159.600   1351   1329   1318   1307   1271   1243   1302   1381   1386   1358
159.800   1309   1254   1214   1201   1294   1400   1355   1266   1262   1286
160.000   1282   1267   1262   1265   1296   1328   1310   1270   1219   1184
160.200   1257   1346   1302   1223   1244   1287   1248   1185   1164   1168
160.400   1216   1263   1225   1164   1161   1188   1250   1312   1306   1272
160.600   1243   1216   1196   1183   1195   1220   1263   1301   1277   1242
160.800   1271   1317   1325   1314   1293   1269   1253   1235   1184   1143
161.000   1223   1325   1291   1217   1212   1235   1250   1250   1190   1125
#.EOFm.                                                                      .
