#.DATE. 2018-06-23 12:36:29                                                  .
#.GTkV. 25                                                                   .
#.GCmA. 30                                                                   .
#.WLa1. 2.2907                                                              .
#.ANFG. 138                                                                  .
#.ENDE. 162                                                                  .
#.STEP. 0.02                                                                 .
#.t/St. 1                                                                 .
#.nScn. 2                                                             .
#.MaxI. 2825                                                .
#.    .                                                                      .
#.iScn. 1                                                .
#.STPi. 0.02                                                .
#.PSIi. 0                                                .
#.FETA. -1                                                                   .
138.000    251    256    221    178    167    172    192    216    233    244
138.200    237    236    300    375    375    347    334    323    300    268
138.400    215    165    180    218    248    268    261    243    227    211
138.600    193    185    227    277    267    238    231    228    203    180
138.800    214    265    293    297    236    164    175    211    207    193
139.000    209    229    208    177    184    206    228    249    265    277
139.200    276    268    253    233    205    188    244    309    267    195
139.400    183    197    216    226    176    117    135    174    170    157
139.600    194    238    224    198    237    279    214    123    117    143
139.800    156    168    203    250    309    361    351    311    241    176
140.000    193    235    240    232    231    230    215    200    209    228
140.200    252    277    300    320    327    318    257    188    186    205
140.400    201    189    190    195    195    194    196    206    246    288
140.600    280    251    216    182    168    168    201    237    221    199
140.800    247    308    291    255    277    317    324    315    292    272
141.000    289    309    271    220    225    255    290    316    284    238
141.200    240    261    277    291    305    318    324    318    259    194
141.400    202    231    215    186    184    195    223    246    219    191
141.600    266    351    281    165    124    126    185    255    265    251
141.800    238    235    272    312    279    220    181    163    213    278
142.000    276    251    238    229    213    200    212    232    242    252
142.200    279    305    294    274    284    299    276    242    228    228
142.400    259    302    335    360    357    336    285    245    325    421
142.600    360    257    258    296    317    318    256    184    194    231
142.800    246    254    272    286    258    234    307    403    417    401
143.000    392    375    308    230    205    207    236    275    312    336
143.200    300    253    271    310    323    322    309    297    313    331
143.400    296    253    278    326    354    366    337    301    316    343
143.600    324    294    309    331    301    261    268    284    250    204
143.800    198    214    261    308    289    253    268    303    328    351
144.000    376    390    347    297    325    372    353    310    287    274
144.200    278    292    329    364    344    306    285    271    262    257
144.400    270    290    307    329    381    436    444    426    370    303
144.600    263    249    320    395    327    221    218    252    264    270
144.800    281    302    355    407    390    347    304    269    271    287
145.000    306    317    280    236    252    290    320    337    309    272
145.200    283    308    306    297    302    309    301    281    234    190
145.400    216    262    265    256    273    294    279    257    276    312
145.600    345    369    353    327    333    353    383    412    416    397
145.800    313    221    220    253    271    280    271    252    221    197
146.000    232    287    330    352    294    223    249    302    303    288
146.200    297    312    315    317    339    359    326    288    333    387
146.400    318    228    281    371    359    313    294    279    229    182
146.600    220    280    280    263    284    318    339    344    296    244
146.800    283    342    313    263    283    325    337    335    323    309
147.000    303    299    282    269    304    350    353    342    346    353
147.200    350    337    299    263    287    325    316    296    316    342
147.400    318    279    265    274    343    427    459    468    462    451
147.600    444    436    419    402    395    392    381    372    389    410
147.800    391    359    335    315    292    282    340    413    423    411
148.000    419    437    463    482    443    389    378    379    355    336
148.200    394    463    435    374    335    316    353    410    449    469
148.400    429    380    404    439    377    296    307    355    405    450
148.600    470    484    518    545    500    429    373    328    305    295
148.800    306    321    311    303    350    400    352    279    281    312
149.000    340    363    374    377    365    354    375    396    357    309
149.200    341    398    420    429    445    456    435    411    437    481
149.400    513    527    471    401    396    410    381    352    408    483
149.600    483    454    435    423    429    431    375    319    383    477
149.800    479    445    409    390    453    528    496    436    448    483
150.000    491    490    491    485    442    396    412    444    436    417
150.200    425    442    457    470    478    481    467    452    462    488
150.400    539    598    639    654    574    484    534    616    579    517
150.600    560    625    585    517    516    540    554    560    549    535
150.800    539    553    572    592    600    603    601    607    662    709
151.000    622    503    486    508    523    541    584    628    620    592
151.200    561    555    677    811    743    613    573    587    691    811
151.400    828    799    748    689    630    602    722    863    809    704
151.600    733    799    790    761    787    827    827    817    839    865
151.800    851    819    777    741    760    799    831    862    895    921
152.000    908    888    908    932    896    856    913    991    977    938
152.200    956    987    973    953    993   1056   1114   1166   1200   1226
152.400   1255   1278   1268   1242   1209   1189   1244   1325   1381   1425
152.600   1456   1482   1508   1521   1469   1407   1425   1477   1542   1608
152.800   1654   1687   1695   1690   1670   1656   1704   1757   1717   1661
153.000   1715   1794   1779   1741   1773   1840   1937   2033   2056   2056
153.200   2091   2136   2168   2172   2066   1951   2011   2128   2185   2212
153.400   2216   2202   2148   2098   2151   2242   2320   2398   2504   2597
153.600   2567   2501   2503   2530   2540   2546   2561   2586   2647   2709
153.800   2696   2669   2717   2765   2661   2544   2661   2825   2760   2624
154.000   2585   2576   2522   2476   2558   2670   2672   2647   2709   2783
154.200   2749   2681   2664   2662   2630   2583   2518   2455   2440   2453
154.400   2511   2570   2539   2493   2545   2630   2680   2688   2551   2390
154.600   2394   2445   2403   2355   2467   2594   2479   2291   2220   2203
154.800   2224   2247   2200   2151   2225   2344   2435   2485   2387   2253
155.000   2240   2258   2185   2074   1963   1864   1832   1841   1928   2009
155.200   1905   1759   1773   1829   1773   1691   1696   1743   1825   1884
155.400   1761   1604   1642   1735   1712   1640   1563   1497   1504   1523
155.600   1452   1364   1364   1398   1419   1430   1416   1387   1336   1287
155.800   1290   1322   1397   1452   1319   1167   1293   1486   1452   1331
156.000   1224   1140   1151   1188   1173   1135   1082   1051   1152   1274
156.200   1241   1160   1152   1161   1103   1031   1019   1022    979    929
156.400    940    971    974    967    963    952    894    831    830    852
156.600    866    874    872    861    830    795    787    790    798    815
156.800    867    920    911    880    862    837    742    641    642    673
157.000    654    620    614    624    656    690    694    688    694    697
157.200    668    638    665    707    712    699    669    646    687    732
157.400    672    590    609    656    635    599    625    665    658    637
157.600    643    663    705    741    712    671    708    756    703    615
157.800    558    523    532    550    528    492    466    459    527    616
158.000    663    684    660    619    581    558    597    640    581    487
158.200    420    380    418    479    495    489    461    442    503    576
158.400    546    473    395    330    343    387    431    471    490    489
158.600    433    373    404    466    497    501    436    360    361    393
158.800    428    460    472    479    501    522    508    488    507    528
159.000    485    428    426    440    424    399    388    382    376    375
159.200    399    426    418    403    428    463    475    468    416    354
159.400    335    337    359    374    314    244    271    337    408    472
159.600    498    496    439    365    324    311    368    433    395    325
159.800    307    317    372    430    416    382    386    407    430    439
160.000    371    291    298    352    469    582    547    458    395    351
160.200    344    355    379    407    423    425    374    322    372    438
160.400    389    307    297    315    336    360    392    414    365    301
160.600    307    332    315    293    333    392    428    443    406    361
160.800    378    410    395    353    269    193    236    307    284    239
161.000    266    321    374    410    363    297    301    330    347    353
161.200    329    304    334    379    384    379    397    412    361    287
161.400    233    203    256    323    297    247    270    314    313    302
161.600    328    356    324    275    263    257    211    171    241    329
161.800    292    223    251    304    297    270    270    282    305    325
#.iScn. 2                                                .
#.STPi. 0.02                                                .
#.PSIi. 24                                                .
#.FETA. -1                                                                   .
138.000    237    267    247    207    169    140    156    188    211    235
138.200    278    310    257    181    167    181    218    257    259    250
138.400    253    254    222    189    226    279    277    252    225    199
138.600    180    176    234    300    286    242    211    190    191    204
138.800    233    266    284    290    266    236    233    237    224    211
139.000    228    250    229    201    223    253    223    179    190    221
139.200    249    267    248    222    238    257    214    162    190    241
139.400    247    239    251    270    284    292    279    257    238    223
139.600    220    218    201    181    183    189    175    165    216    272
139.800    227    162    203    267    231    174    209    273    295    291
140.000    237    173    156    159    172    190    216    242    246    249
140.200    284    325    329    318    302    284    264    258    319    380
140.400    306    197    183    201    187    180    266    364    331    251
140.600    204    182    220    282    341    386    369    324    261    196
140.800    157    137    156    186    199    205    208    218    269    325
141.000    321    288    225    168    194    247    260    258    253    244
141.200    220    198    219    254    276    285    257    231    285    353
141.400    329    275    246    240    292    344    273    168    141    149
141.600    172    196    192    185    226    274    259    223    210    208
141.800    216    226    226    224    229    238    255    279    318    354
142.000    337    299    264    238    249    271    273    264    240    216
142.200    222    239    251    260    264    261    236    216    263    321
142.400    304    270    306    368    418    452    423    373    344    325
142.600    310    296    287    280    276    273    262    250    251    260
142.800    282    311    342    364    334    294    304    330    333    322
143.000    289    257    273    302    293    270    254    250    297    344
143.200    286    211    261    346    351    327    313    300    274    249
143.400    257    278    292    305    323    346    381    406    354    282
143.600    257    251    248    246    242    238    234    237    270    311
143.800    325    324    298    264    239    235    321    423    426    394
144.000    381    375    370    357    296    233    258    314    347    360
144.200    321    279    324    379    312    217    227    279    326    359
144.400    329    288    320    370    360    322    266    217    245    303
144.600    366    408    340    246    244    271    264    257    310    366
144.800    309    229    264    331    331    311    319    336    335    326
145.000    312    300    310    328    351    360    297    220    213    237
145.200    269    304    331    349    339    321    328    340    334    325
145.400    341    361    351    331    321    320    347    368    302    211
145.600    162    144    196    263    267    251    270    292    264    230
145.800    266    311    264    205    266    358    358    329    334    342
146.000    303    254    247    250    223    195    230    283    298    296
146.200    286    265    209    152    160    191    208    220    231    253
146.400    336    428    435    403    338    277    301    345    320    280
146.600    300    343    376    391    331    258    268    314    367    414
146.800    418    399    356    312    305    311    305    292    264    240
147.000    264    306    333    348    328    299    295    295    262    232
147.200    282    348    334    294    289    295    291    287    305    332
147.400    365    404    458    500    447    370    360    378    406    428
147.600    400    358    348    346    327    316    382    456    420    351
147.800    335    337    317    290    265    256    324    403    387    337
148.000    312    304    334    372    367    354    386    424    403    361
148.200    329    308    317    342    380    416    411    390    374    364
148.400    375    391    386    378    403    432    418    388    368    358
148.600    376    403    413    415    407    401    424    456    478    481
148.800    414    332    318    327    313    291    279    281    333    395
149.000    405    399    415    432    417    387    344    308    330    372
149.200    396    414    444    468    442    400    378    367    372    391
149.400    445    505    522    513    461    400    387    393    399    409
149.600    437    459    411    350    363    400    412    416    431    442
149.800    407    364    376    406    416    418    425    430    422    418
150.000    469    538    595    629    568    491    521    571    509    419
150.200    406    432    503    570    535    467    439    429    428    429
150.400    425    425    458    497    499    490    495    506    525    539
150.600    515    475    435    411    465    533    509    456    437    444
150.800    517    599    586    545    546    554    515    466    459    465
151.000    456    442    436    444    502    566    562    546    610    687
151.200    667    623    647    678    603    508    533    594    600    591
151.400    620    657    656    637    601    577    643    720    672    596
151.600    630    701    735    749    728    695    664    643    668    714
151.800    765    815    847    869    883    890    885    874    855    838
152.000    849    860    814    782    927   1097   1040    899    788    716
152.200    771    865    899    915    961   1009   1012    995    973    948
152.400    921    903    932    977   1010   1049   1142   1235   1228   1193
152.600   1223   1265   1239   1193   1188   1203   1228   1266   1344   1425
152.800   1439   1446   1548   1650   1559   1414   1387   1416   1485   1557
153.000   1561   1538   1523   1505   1457   1425   1530   1663   1663   1632
153.200   1717   1840   1913   1954   1928   1874   1809   1753   1767   1818
153.400   1919   2007   1938   1841   1916   2037   2046   2028   2097   2173
153.600   2111   2025   2104   2229   2259   2258   2295   2328   2265   2186
153.800   2223   2304   2365   2417   2456   2473   2408   2314   2240   2194
154.000   2250   2323   2284   2221   2260   2328   2338   2346   2464   2597
154.200   2585   2517   2464   2428   2450   2494   2528   2542   2478   2401
154.400   2422   2475   2490   2494   2520   2547   2544   2522   2473   2424
154.600   2430   2443   2380   2308   2346   2408   2375   2293   2161   2042
154.800   2088   2177   2154   2108   2169   2277   2405   2508   2446   2331
155.000   2284   2256   2187   2111   2086   2079   2057   2029   1998   1969
155.200   1957   1947   1922   1897   1905   1929   1961   1989   1977   1939
155.400   1850   1749   1698   1686   1777   1888   1893   1853   1808   1766
155.600   1757   1752   1701   1639   1617   1603   1552   1500   1515   1545
155.800   1518   1469   1427   1380   1298   1220   1235   1300   1425   1537
156.000   1459   1329   1316   1357   1438   1514   1490   1425   1355   1290
156.200   1258   1245   1255   1265   1224   1159   1080   1012   1021   1066
156.400   1134   1210   1274   1316   1267   1178   1075    991   1026   1090
156.600   1064   1007    980    966    965    965    944    909    849    797
156.800    840    915    967    996    965    907    839    785    823    890
157.000    927    940    896    828    752    684    674    688    699    725
157.200    832    939    878    757    669    618    680    768    753    701
157.400    669    645    624    604    581    566    594    638    674    694
157.600    656    596    549    524    581    659    680    689    751    805
157.800    709    578    567    597    585    568    603    642    599    540
158.000    566    614    601    564    532    512    543    578    528    464
158.200    500    568    596    594    517    431    445    499    551    590
158.400    559    509    499    503    495    491    524    555    499    431
158.600    471    541    540    514    511    512    490    467    489    512
158.800    452    387    467    577    548    479    484    508    482    440
159.000    418    404    391    389    432    479    448    398    408    432
159.200    411    382    408    450    464    457    406    348    337    354
159.400    419    489    488    462    461    468    473    471    436    396
159.600    399    421    450    470    432    381    390    416    415    410
159.800    440    473    448    399    347    308    345    401    392    363
160.000    361    372    398    417    374    318    321    342    338    326
160.200    324    322    300    278    301    334    334    326    348    374
160.400    361    339    342    357    375    392    389    379    367    356
160.600    349    336    289    242    257    290    290    283    311    346
160.800    347    340    353    369    352    324    311    304    305    311
161.000    324    333    307    273    271    286    331    371    329    264
161.200    244    244    251    265    299    329    300    255    240    241
161.400    259    283    307    328    332    333    351    366    336    300
161.600    327    367    347    309    301    310    343    385    430    456
161.800    382    288    292    320    268    203    230    287    307    310
#.EOFm.                                                                      .
