#.DATE. 2018-06-23 12:58:17                                                  .
#.GTkV. 25                                                                   .
#.GCmA. 30                                                                   .
#.WLa1. 2.2907                                                              .
#.ANFG. 138                                                                  .
#.ENDE. 162                                                                  .
#.STEP. 0.02                                                                 .
#.t/St. 1                                                                 .
#.nScn. 2                                                             .
#.MaxI. 3124                                                .
#.    .                                                                      .
#.iScn. 1                                                .
#.STPi. 0.02                                                .
#.PSIi. 0                                                .
#.FETA. -1                                                                   .
138.000    341    307    278    256    252    261    294    327    318    297
138.200    299    307    290    274    305    345    338    312    286    269
138.400    297    339    361    371    361    350    374    394    321    231
138.600    246    303    363    411    389    348    352    374    394    413
138.800    424    427    408    382    365    348    316    289    322    368
139.000    366    341    302    273    316    372    348    302    306    326
139.200    329    332    367    405    393    360    324    298    335    387
139.400    387    375    403    441    446    435    412    384    353    325
139.600    319    321    324    334    374    420    435    437    442    440
139.800    400    359    396    454    457    441    437    436    433    438
140.000    488    540    509    451    421    409    424    444    435    423
140.200    450    482    464    434    449    478    490    495    495    501
140.400    547    600    606    597    602    609    602    599    641    688
140.600    670    636    651    676    659    627    607    600    641    688
140.800    669    637    675    729    723    702    729    765    753    728
141.000    738    770    842    907    860    782    773    798    859    930
141.200    976   1005    996    977    986   1001    990    973    986   1018
141.400   1093   1163   1122   1049   1044   1075   1149   1226   1228   1218
141.600   1297   1389   1372   1320   1307   1312   1335   1354   1320   1277
141.800   1301   1363   1488   1617   1643   1631   1637   1648   1642   1642
142.000   1702   1798   1951   2095   2082   2028   2083   2154   2090   1997
142.200   2032   2114   2174   2251   2452   2643   2542   2356   2330   2381
142.400   2497   2630   2716   2776   2796   2806   2841   2884   2912   2923
142.600   2877   2820   2813   2848   2990   3124   3011   2832   2813   2843
142.800   2795   2725   2703   2698   2675   2652   2667   2706   2792   2884
143.000   2916   2911   2843   2755   2697   2652   2617   2598   2644   2689
143.200   2601   2467   2373   2297   2232   2190   2238   2306   2289   2237
143.400   2175   2128   2176   2249   2255   2229   2168   2094   2018   1951
143.600   1926   1911   1863   1808   1789   1783   1764   1735   1681   1631
143.800   1651   1681   1624   1535   1456   1395   1399   1424   1422   1418
144.000   1449   1477   1415   1327   1291   1276   1269   1275   1330   1384
144.200   1343   1273   1255   1251   1218   1170   1099   1031   1025   1036
144.400   1017    987    965    947    929    919    947    982    967    938
144.600    931    927    896    850    786    736    796    880    862    811
144.800    792    784    766    734    657    579    591    635    659    664
145.000    617    560    557    568    549    519    502    490    473    456
145.200    442    433    434    436    418    394    378    374    405    445
145.400    453    447    428    402    364    328    324    334    356    374
145.600    353    319    290    269    275    285    268    244    235    239
145.800    275    311    285    243    239    252    265    274    258    236
146.000    231    233    238    247    271    293    272    234    199    173
146.200    184    202    183    159    183    221    229    226    223    217
146.400    193    169    185    209    191    161    153    154    163    175
146.600    182    186    177    166    170    178    177    177    196    216
146.800    211    192    158    129    153    194    207    207    197    183
147.000    170    158    145    136    157    184    189    186    185    185
147.200    185    184    180    175    178    181    171    157    156    157
147.400    140    121    130    147    146    139    135    138    163    191
147.600    190    183    196    210    182    145    143    154    159    161
147.800    164    170    186    198    167    129    139    162    152    132
148.000    134    139    120     97     96    106    124    143    149    152
148.200    172    188    159    121    131    156    154    149    176    208
148.400    198    180    202    230    206    172    183    204    177    140
148.600    153    178    168    148    146    150    141    129    130    139
148.800    160    179    166    147    163    184    160    128    146    177
149.000    170    149    134    125    130    141    162    176    142     99
149.200    112    141    132    112    114    120    111     98    102    115
149.400    143    168    149    121    132    153    154    148    155    165
149.600    162    159    181    202    166    118    122    143    149    147
149.800    133    120    129    144    144    138    137    136    133    132
150.000    145    159    158    150    145    143    146    150    146    138
150.200    132    127    128    127    100     70     80    104    123    133
150.400    115     93    111    137    123    101    122    155    161    158
150.600    157    157    159    159    149    137    135    135    126    117
150.800    118    123    121    115     94     78    110    151    137    106
151.000     95     94     96    100    104    110    123    137    143    141
151.200    122    102    110    125    114     96    103    116    114    108
151.400    110    115    117    119    129    141    143    136    104     76
151.600    120    176    155    113    121    145    146    139    135    130
151.800    110     91    105    127    114     94    106    126    128    120
152.000    103     87     86     91     89     90    116    144    131    103
152.200     86     81    106    134    114     83    100    133    150    154
152.400    128     97    102    120    128    131    129    123    107     96
152.600    125    161    149    123    130    143    120     91    110    140
152.800    132    115    131    156    154    143    132    122    114    110
153.000    126    145    142    132    129    125    101     78     98    134
153.200    158    172    155    132    147    166    130     84     96    124
153.400    109     83     90    106    102     95    113    133    113     84
153.600     89    108    135    162    176    178    152    120    119    131
153.800    143    151    134    115    129    150    136    114    121    132
154.000    108     77     84    105    119    129    126    120    124    128
154.200    112     91     85     85     85     82     64     48     70    102
154.400    101     92    109    132    130    121    122    126    120    113
154.600    123    135    130    117     94     73     79     98    134    165
154.800    144    108    102    109    118    127    136    143    143    140
155.000    129    116    111    111    121    134    140    142    134    122
155.200    105     90     90     98    114    125     91     51     71    110
155.400    119    114     92     71     82    101     98     90    101    117
155.600    124    124    103     82    106    141    146    136    119    100
155.800     86     76     75     75     70     66     84    106    113    113
156.000    115    116    112    106    105    102     87     72     82     99
156.200     96     90    104    121    113     96     86     81     93    109
156.400    120    123    103     78     81     95    106    113    110    104
156.600    110    116    105     93    111    131     99     52     29     20
156.800     39     69     99    123    114     95     96    105    122    134
157.000    103     63     66     85     94     97     87     74     76     81
157.200     73     63     74     94    111    123    113    100    109    124
157.400    125    125    142    159    143    119    130    151    159    155
157.600    124     90     96    115    119    117    117    115    103     89
157.800     87     87     77     66     71     84     97    108    106    100
158.000    106    116    127    136    127    114    118    124    113    101
158.200    116    133    110     75     65     72    116    160    135     89
158.400     70     63     64     71     92    113    112    108    132    159
158.600    136    102    105    117    104     87    105    127    101     64
158.800     77     99     69     34     71    124    115     84     66     59
159.000     72     92    102    107    104     97     85     72     67     68
159.200     86    105    102     93     99    107     95     80     89    102
159.400     90     74     89    112    107     93     92     92     67     45
159.600     85    137    127     99     98    108    123    134    120     98
159.800     88     80     63     46     44     50     66     86    106    120
160.000     99     76    105    145    136    108     79     53     47     50
160.200     59     72     90    105     92     74     84    106    126    145
160.400    158    162    136    104    102    109    101     92    109    130
160.600    111     81     71     73     93    116    109     91     71     55
160.800     59     74    104    132    115     85     73     74     99    132
161.000    165    186    154    105     82     70     53     39     43     56
161.200     73     90    107    118    106     86     76     69     60     57
161.400     89    128    129    113     87     64     79    105    109    105
161.600     96     89     97    108    101     89     90     95     93     89
161.800     82     71     43     15     14     24     39     54     62     67
#.iScn. 2                                                .
#.STPi. 0.02                                                .
#.PSIi. 24                                                .
#.FETA. -1                                                                   .
138.000    136    158    160    149    116     81     81     99    132    162
138.200    139     99     84     80     89    102    105    108    124    142
138.400    135    118     96     77     85     99     93     85    110    138
138.600    115     81     97    125    118     99     98    102     91     80
138.800     91    107    108    101     91     84    107    131    105     69
139.000     83    111    107     95    105    118    109     94     94    100
139.200    105    107    102     94     86     83    102    120     89     48
139.400     49     69    102    131    112     78     64     59     61     64
139.600     62     63     92    126    132    127    130    132    109     79
139.800     56     45     82    128    122     98     84     74     63     55
140.000     68     90    107    118    101     79     88    105     97     85
140.200    103    128    123    107     93     84    100    119    101     73
140.400     65     64     56     50     59     76     95    109     93     72
140.600     89    117    123    123    128    139    163    182    146     95
140.800     74     68     72     81     93    107    116    126    143    161
141.000    172    174    148    116    116    125    119    109    112    119
141.200    118    112     96     83    110    139    105     58     76    114
141.400    122    120    131    142    130    111    105    107    116    124
141.600    113     99    100    107    109    106     88     71     87    113
141.800    118    114    115    118    129    140    136    124    101     79
142.000     88    103     82     54     66     87     74     59     99    150
142.200    146    124    117    121    145    168    146    114    120    134
142.400    103     64     67     88    114    134    117     91     97    116
142.600    140    159    141    116    123    137    126    106     98     96
142.800    105    114     97     77     98    129    125    104     68     38
143.000     63    100     84     55     71    102    120    128    121    102
143.200     61     23     44     81     88     83     86     93    102    111
143.400    117    119    116    110    102     94     88     87    113    140
143.600    127    102    102    110    106     98     88     77     60     45
143.800     55     77    114    145    119     78     70     74     65     53
144.000     49     51     65     82     96    105    104    101    111    124
144.200    119    108    103    102    103    103     95     83     74     66
144.400     58     53     61     77    102    124    121    108    100     94
144.600     91     88     79     69     74     82     80     74     68     62
144.800     59     61     83    106     89     62     57     67    112    158
145.000    146    111     84     63     57     60     75     93    102    105
145.200     90     72     74     82     78     71     67     68     79     95
145.400    108    117    114    105     91     80     94    114    114    109
145.600    116    123    105     81     78     81     66     50     67     90
145.800     75     50     48     58     75     92     97     97     95     95
146.000    105    115    104     86     78     74     71     69     62     57
146.200     64     78    105    131    125    114    137    162    137     93
146.400     62     40     35     41     70    105    122    127    109     84
146.600     75     76     87    103    117    129    130    126    123    120
146.800    111    101    106    114    110    103     99     96     83     67
147.000     53     45     65     93    103    108    128    145    117     79
147.200     79     94    101    105    112    116    102     82     74     70
147.400     66     60     44     31     58     92     89     76     83    101
147.600    126    147    138    118    111    108     99     85     61     34
147.800     17      8     27     56     80     97     89     73     62     58
148.000     71     88     95     96     92     87     90     93     78     56
148.200     36     25     64    112    112     94     91     93     97     98
148.400     84     72    100    135    130    110     98     91     91     94
148.600    104    111     93     66     45     32     43     64     95    126
148.800    140    142    112     84    123    174    148    100     92     95
149.000     73     45     37     39     53     71     87    101    102     97
149.200     92     87     89     89     72     52     49     52     50     49
149.400     66     87     93     91     77     60     47     40     61     88
149.600     90     83     81     80     71     65     90    120    107     81
149.800     73     78    105    135    136    127    120    110     83     60
150.000     92    135    118     83     71     72     85     96     74     49
150.200     79    123    127    114     96     81     91    107    106     97
150.400     80     65     75     95    118    134    112     79     71     77
150.600    105    131    112     81     85    101    107    103     67     32
150.800     62    108    102     82     89    105    111    112    108    103
151.000    106    111    106    101    111    120     91     53     48     58
151.200     80    101     99     87     78     77    108    144    143    124
151.400     87     53     70    102    103     93     93     96     94     89
151.600     84     81     95    110    101     87     90     96     80     61
151.800     67     79     71     59     69     83     79     72     91    116
152.000    115    102     89     79     92    111    114    110    107    106
152.200    107    108    107    107    116    120     84     43     62     97
152.400    100     92     91     90     74     54     47     48     63     79
152.600     80     77     87     98     86     69     80     95     74     47
152.800     65     97    112    115     95     72     82    103    106    101
153.000     94     87     82     80     89    102    105    104    100     98
153.200    114    131    115     88     74     72     97    124    111     85
153.400     81     85     90     98    115    132    137    132    104     70
153.600     56     54     74     98    103    100     87     76     88    106
153.800    101     87     75     64     61     64     84    107    115    114
154.000    100     86    105    126     94     48     40     50     68     88
154.200     97    101    108    109     73     35     56     92     89     74
154.400     71     73     75     78     84     89     79     69     89    113
154.600     94     66     79     98     61     13     26     63     90    108
154.800     96     78     87    106    123    130     94     47     35     38
155.000     46     56     66     79    107    134    129    107     65     25
155.200     35     61     62     56     57     63     84    105    104     93
155.400     72     54     66     85     81     70     72     81     92    101
155.600     95     85     86     92     97     97     82     65     75     92
155.800     94     91     96     99     74     44     47     62     72     78
156.000     74     70     84     99     78     45     30     24     28     36
156.200     42     50     63     76     71     66     96    128    105     63
156.400     43     35     52     78    104    124    114     92     72     59
156.600     82    113    108     88     71     56     43     36     55     78
156.800     63     40     50     69     65     51     39     33     62     95
157.000     81     57     70     92     85     71     72     75     51     21
157.200     10     11     37     64     51     29     45     73     79     78
157.400     82     84     61     32     18     13     25     45     78    106
157.600     83     47     52     79    130    171    120     48     56     92
157.800    105    108    106     99     82     64     64     72     82     92
158.000    100    103     78     47     44     54     71     88     90     84
158.200     73     60     55     55     60     62     32      1     25     66
158.400     77     77     75     75     80     83     58     26     15     17
158.600     39     66     77     80     79     77     75     69     43     17
158.800     28     53     73     84     60     29     33     47     44     35
159.000     30     27     30     38     55     75     96    115    116    105
159.200     72     36     27     34     68    104    103     87     73     64
159.400     78     98     95     84     81     84    100    117    106     89
159.600     97    108     87     53     19      0      0     20     60     81
159.780     90     73     53     74    104     93     70     72     78     55
159.980     26     21     26     36     43     30     15     38     69     65
160.180     54     77    107    107     96     95     94     81     63     44
160.380     31     53     85     97    101    110    117    107     92     79
160.580     71     86    104     94     74     67     66     65     67     79
160.780     89     71     49     65     93    101     97     73     45     35
160.980     34     37     41     50     57     49     39     52     70     63
161.180     48     38     33     45     62     77     86     67     44     54
161.380     72     60     41     44     52     43     30     34     42     40
161.580     38     56     79     90     91     62     27     15     16     31
161.780     48     55     60     78     96     86     68     72     78     59
161.980     32      0      0      0      0      0      0      0      0      0
#.EOFm.                                                                      .
