#.DATE. 2018-06-23 00:03:47                                                  .
#.GTkV. 25                                                                   .
#.GCmA. 30                                                                   .
#.WLa1. 2.2907                                                              .
#.ANFG. 141                                                                  .
#.ENDE. 165                                                                  .
#.STEP. 0.02                                                                 .
#.t/St. 1                                                                 .
#.nScn. 2                                                             .
#.MaxI. 2807                                                .
#.    .                                                                      .
#.iScn. 1                                                .
#.STPi. 0.02                                                .
#.PSIi. 0                                                .
#.FETA. -1                                                                   .
141.000    244    260    279    289    246    185    140    107     98    100
141.200    115    133    139    146    178    220    262    298    299    278
141.400    210    142    161    212    246    269    265    246    197    148
141.600    154    185    229    275    298    308    298    265    155     53
141.800    138    272    276    237    246    270    276    270    242    211
142.000    205    205    182    163    212    272    252    207    194    195
142.200    206    212    181    148    175    212    174    119    127    162
142.400    201    244    302    345    283    196    197    228    236    237
142.600    256    271    228    183    243    320    270    188    196    226
142.800    188    136    152    187    177    159    191    229    197    153
143.000    191    246    224    178    159    156    181    209    195    175
143.200    204    242    233    216    251    291    256    199    187    189
143.400    174    161    193    245    306    356    337    284    195    110
143.600    121    167    192    199    162    127    184    257    227    173
143.800    209    255    176     78    142    254    291    289    250    201
144.000    174    157    143    133    130    139    198    261    249    212
144.200    200    203    233    260    223    169    150    154    196    255
144.400    319    369    338    279    245    225    225    228    207    181
144.600    175    186    239    291    256    198    195    209    191    168
144.800    175    193    199    204    221    236    214    181    160    149
145.000    164    190    216    237    228    208    188    174    188    204
145.200    167    127    175    251    289    306    300    284    271    256
145.400    223    196    235    293    308    302    279    248    207    173
145.600    189    233    315    394    378    329    302    291    318    344
145.800    287    212    214    242    253    261    286    314    325    321
146.000    275    236    309    401    366    288    249    227    216    218
146.200    257    301    295    272    264    262    263    261    236    204
146.400    185    174    178    192    226    261    261    255    289    323
146.600    277    213    218    251    292    322    279    225    261    325
146.800    354    356    298    232    246    292    340    372    327    266
147.000    278    313    308    291    287    289    291    292    285    272
147.200    244    223    269    327    318    289    293    307    300    289
147.400    303    314    265    211    260    327    278    208    271    368
147.600    368    332    301    287    341    405    378    322    309    314
147.800    322    329    321    318    367    413    341    248    291    371
148.000    361    324    329    349    359    360    334    305    313    332
148.200    334    329    321    311    304    299    296    298    322    349
148.400    354    349    339    337    382    435    433    404    351    309
148.600    362    431    382    295    254    240    261    292    296    298
148.800    335    377    369    347    357    371    343    308    315    333
149.000    321    304    325    350    322    279    271    272    250    228
149.200    256    303    348    389    417    436    438    435    434    423
149.400    360    287    266    267    276    278    232    182    212    266
149.600    282    291    348    401    337    253    294    370    368    343
149.800    365    392    354    297    276    273    280    295    327    362
150.000    380    393    413    435    455    467    441    408    418    444
150.200    460    457    376    295    372    484    456    389    409    459
150.400    487    497    459    421    485    566    532    469    496    537
150.600    476    400    454    539    516    463    477    511    515    513
150.800    544    578    562    530    516    508    487    473    519    585
151.000    633    669    690    692    637    560    483    436    536    664
151.200    645    582    591    625    641    646    641    637    663    693
151.400    683    655    620    603    686    782    740    659    663    705
151.600    769    825    806    770    802    841    773    691    748    853
151.800    924    959    876    769    779    824    815    793    806    839
152.000    895    949    938    904    882    864    844    840    918   1006
152.200    986    945   1019   1119   1120   1079   1018    975   1059   1185
152.400   1271   1320   1264   1185   1204   1269   1368   1468   1511   1506
152.600   1376   1237   1300   1426   1465   1476   1524   1584   1634   1665
152.800   1624   1565   1560   1569   1544   1532   1650   1794   1808   1787
153.000   1848   1927   1934   1907   1855   1816   1887   1989   2021   2024
153.200   2022   2030   2095   2162   2124   2067   2130   2213   2163   2089
153.400   2166   2286   2316   2325   2409   2505   2506   2457   2341   2227
153.600   2252   2327   2377   2432   2567   2704   2696   2618   2478   2339
153.800   2325   2386   2570   2752   2671   2524   2570   2668   2638   2565
154.000   2537   2550   2678   2807   2709   2553   2555   2610   2607   2596
154.200   2663   2737   2691   2607   2572   2571   2648   2724   2638   2516
154.400   2529   2595   2653   2677   2554   2405   2416   2468   2400   2320
154.600   2417   2556   2555   2499   2455   2408   2331   2261   2294   2352
154.800   2327   2283   2307   2342   2294   2212   2130   2059   2043   2038
155.000   1978   1912   1924   1970   2024   2069   2046   2005   2012   2020
155.200   1933   1832   1843   1889   1888   1859   1783   1699   1662   1659
155.400   1731   1798   1692   1544   1539   1588   1622   1652   1694   1717
155.600   1628   1516   1514   1546   1528   1506   1561   1623   1567   1475
155.800   1444   1433   1396   1354   1343   1348   1363   1378   1366   1344
156.000   1319   1285   1211   1145   1199   1276   1226   1138   1112   1115
156.200   1141   1165   1126   1055    952    860    888    967   1058   1121
156.400   1020    886    907    984   1024   1038    992    929    901    892
156.600    908    925    896    860    885    923    901    848    759    678
156.800    715    794    850    883    849    812    890    978    883    739
157.000    718    741    741    730    714    698    692    705    791    874
157.200    792    665    640    659    693    722    697    656    637    632
157.400    654    682    693    693    670    642    634    629    600    567
157.600    554    547    523    497    491    494    502    517    556    594
157.800    583    552    516    493    545    611    597    551    500    452
158.000    421    412    481    560    532    461    384    324    364    432
158.200    440    429    444    463    447    430    477    531    500    442
158.400    426    427    436    453    495    539    540    520    483    449
158.600    463    498    535    556    495    414    397    409    446    489
158.800    515    520    450    362    332    326    320    322    364    417
159.000    442    443    379    309    342    406    419    411    403    400
159.200    427    460    470    458    386    316    377    461    395    290
159.400    290    327    336    341    379    416    380    326    334    365
159.600    394    417    417    412    435    456    411    351    351    369
159.800    362    346    342    339    322    305    308    315    299    278
160.000    284    301    326    348    340    318    283    240    185    131
160.200    109    117    217    330    328    290    302    327    320    305
160.400    312    326    331    325    278    224    223    242    254    266
160.600    285    309    341    365    329    291    365    456    412    336
160.800    373    444    460    450    417    373    319    268    254    251
161.000    234    219    234    259    267    271    282    302    350    394
161.200    358    294    252    218    184    169    251    350    349    310
161.400    289    278    281    288    291    300    341    382    361    319
161.600    292    276    278    281    249    216    245    298    349    388
161.800    369    326    278    236    236    246    226    204    233    271
162.000    248    208    209    232    280    331    342    339    343    348
162.200    350    346    323    294    267    247    259    285    324    361
162.400    360    346    347    342    282    212    202    220    261    307
162.600    333    347    341    329    324    333    395    460    428    358
162.800    285    222    217    243    309    368    307    220    240    293
163.000    303    297    306    314    292    258    222    196    222    262
163.200    272    272    285    304    325    339    313    266    197    138
163.400    174    240    261    274    334    394    366    308    283    270
163.600    249    231    246    274    299    322    340    351    338    315
163.800    287    263    268    282    287    286    265    238    216    198
164.000    192    192    200    206    184    157    163    181    186    195
164.200    252    305    241    145    116    133    245    359    291    182
164.400    228    321    339    322    282    242    254    281    286    281
164.600    269    255    241    223    185    155    204    275    306    313
164.800    287    242    175    119    160    229    246    254    324    386
#.iScn. 2                                                .
#.STPi. 0.02                                                .
#.PSIi. 24                                                .
#.FETA. -1                                                                   .
141.000    383    347    331    322    308    295    298    308    318    322
141.200    295    259    243    232    206    186    229    287    292    276
141.400    265    257    259    261    241    221    239    268    269    255
141.600    219    197    283    384    339    251    248    272    264    250
141.800    263    281    269    257    305    363    356    319    265    218
142.000    238    279    295    305    338    373    373    354    309    256
142.200    219    203    256    317    286    227    215    219    216    211
142.400    208    210    230    254    258    254    252    256    290    324
142.600    300    257    242    245    280    315    285    228    167    118
142.800    134    180    243    303    316    312    315    314    280    236
143.000    215    204    198    199    223    252    256    245    204    172
143.200    242    328    296    241    312    414    415    370    305    243
143.400    241    259    259    254    267    285    293    297    298    295
143.600    277    249    201    159    192    245    256    255    274    302
143.800    327    343    320    286    272    277    337    395    332    237
144.000    227    245    236    232    308    391    346    268    280    324
144.200    349    363    357    338    294    250    256    272    235    195
144.400    247    316    290    240    265    312    327    328    319    315
144.600    348    382    351    295    251    214    197    183    151    127
144.800    188    280    364    420    359    261    215    202    257    332
145.000    372    394    391    377    350    314    259    202    170    162
145.200    219    296    340    361    335    294    266    264    362    467
145.400    404    293    275    295    313    328    328    333    390    445
145.600    383    286    242    232    281    340    335    314    333    363
145.800    361    355    388    427    422    397    357    317    306    314
146.000    365    413    358    285    330    400    362    300    340    402
146.200    379    331    333    349    335    314    320    335    346    355
146.400    354    350    346    352    408    471    467    445    458    462
146.600    348    221    271    373    385    369    396    424    370    302
146.800    321    370    392    399    381    355    337    330    353    379
147.000    352    314    326    351    346    329    320    322    361    408
147.200    420    412    377    346    387    430    341    221    211    250
147.400    311    369    370    351    344    340    324    315    358    406
147.600    377    329    338    367    386    398    400    401    415    433
147.800    439    433    387    332    311    316    387    460    408    316
148.000    273    264    330    405    380    326    335    365    374    373
148.200    370    361    325    288    293    312    316    320    356    398
148.400    413    411    381    353    398    462    473    458    421    386
148.600    403    428    386    342    415    502    424    304    304    354
148.800    419    479    489    463    360    242    199    201    275    362
149.000    376    357    328    302    318    342    327    313    376    450
149.200    424    368    360    367    346    325    364    423    469    492
149.400    431    352    348    370    369    367    408    457    458    439
149.600    417    393    370    361    414    479    477    447    404    361
149.800    343    339    358    385    407    421    407    395    451    514
150.000    474    412    450    515    517    497    498    498    447    385
150.200    376    389    407    434    496    563    585    582    544    499
150.400    486    492    531    567    520    463    526    607    543    444
150.600    463    527    578    616    614    600    609    626    635    634
150.800    600    559    554    564    574    584    591    597    605    616
151.000    645    666    614    543    530    541    554    556    501    455
151.200    568    712    697    632    632    651    634    611    633    680
151.400    763    846    854    820    721    621    639    699    728    746
151.600    775    798    763    723    775    844    818    766    779    815
151.800    841    860    866    868    883    897    879    858    877    899
152.000    851    783    752    745    783    839    895    934    889    836
152.200    905   1014   1081   1110   1031    934    962   1029   1044   1035
152.400   1011    992   1027   1082   1133   1176   1183   1180   1207   1240
152.600   1250   1239   1178   1112   1124   1173   1249   1325   1351   1358
152.800   1370   1384   1396   1412   1450   1488   1484   1475   1518   1565
153.000   1528   1472   1485   1528   1587   1650   1698   1739   1774   1810
153.200   1869   1919   1881   1823   1843   1902   1993   2056   1915   1742
153.400   1809   1966   2086   2165   2106   2015   2039   2102   2130   2157
153.600   2247   2327   2224   2089   2160   2303   2391   2439   2394   2325
153.800   2319   2343   2385   2416   2349   2256   2230   2247   2350   2464
154.000   2453   2413   2475   2539   2411   2253   2323   2461   2479   2464
154.200   2521   2600   2642   2664   2658   2629   2548   2465   2477   2540
154.400   2667   2795   2808   2761   2647   2518   2442   2400   2417   2453
154.600   2470   2484   2518   2561   2604   2628   2554   2449   2391   2354
154.800   2335   2329   2353   2371   2301   2221   2274   2349   2269   2153
155.000   2167   2236   2320   2374   2243   2078   2105   2190   2185   2141
155.200   2087   2044   2078   2115   2017   1894   1921   1987   1955   1904
155.400   1963   2045   2029   1969   1889   1818   1835   1873   1841   1792
155.600   1796   1823   1854   1867   1785   1696   1763   1860   1792   1689
155.800   1736   1815   1751   1653   1678   1720   1597   1435   1405   1436
156.000   1512   1584   1548   1475   1437   1416   1411   1418   1449   1473
156.200   1420   1351   1355   1370   1285   1178   1156   1177   1245   1306
156.400   1240   1146   1159   1201   1173   1122   1101   1098   1128   1161
156.600   1141   1097   1041    995   1021   1059   1019    956    941    935
156.800    877    816    837    880    871    853    890    930    868    786
157.000    803    853    873    882    896    909    910    907    906    899
157.200    858    803    738    685    709    754    754    742    762    790
157.400    801    798    757    716    753    803    761    690    653    631
157.600    624    618    590    557    536    526    549    579    576    576
157.800    657    742    679    576    571    600    603    593    576    556
158.000    536    521    529    544    539    536    576    623    615    589
158.200    580    574    546    515    511    529    610    692    651    569
158.400    530    514    527    547    547    535    508    483    506    543
158.600    554    550    526    495    472    459    481    515    536    552
158.800    568    578    563    529    458    377    318    289    363    461
159.000    469    445    443    451    471    486    457    427    476    546
159.200    566    560    529    489    457    438    462    496    485    469
159.400    510    567    592    593    537    459    381    318    327    362
159.600    382    403    462    512    442    338    304    308    359    421
159.800    445    449    434    421    448    475    419    348    372    425
160.000    433    424    423    421    398    367    344    334    372    422
160.200    427    421    442    466    450    422    417    418    401    384
160.400    403    430    421    398    380    372    407    448    431    399
160.600    408    428    418    400    399    409    439    462    408    339
160.800    342    376    421    459    436    380    285    199    232    301
161.000    320    328    388    451    432    387    379    385    391    404
161.200    454    496    429    344    383    451    424    366    346    347
161.400    371    408    459    498    453    395    432    493    477    432
161.600    389    354    352    371    427    479    444    374    301    254
161.800    344    463    460    415    407    397    310    225    304    422
162.000    413    365    375    398    363    317    331    366    386    395
162.200    382    367    384    408    400    385    392    403    392    376
162.400    380    384    350    312    337    384    415    429    393    344
162.600    331    324    267    208    232    282    292    286    275    270
162.800    302    341    345    329    283    243    295    366    352    312
163.000    313    335    374    413    417    404    374    339    311    301
163.200    373    451    399    308    283    291    326    358    322    269
163.400    276    298    282    261    298    352    373    383    403    418
163.600    391    339    244    157    200    277    269    234    236    254
163.800    283    318    353    372    303    219    240    293    299    290
164.000    298    311    317    326    362    389    323    240    262    320
164.200    351    364    342    305    265    234    260    302    317    315
164.400    285    247    231    220    195    178    225    279    246    196
164.600    236    295    269    224    256    302    271    216    193    189
164.800    213    248    276    303    330    348    316    269    244    233
#.EOFm.                                                                      .
