#.DATE. 2018-05-28 08:16:39                                                  .
#.GTkV. 25                                                                   .
#.GCmA. 30                                                                   .
#.WLa1. 1.54184                                                              .
#.ANFG. 150                                                                  .
#.ENDE. 160                                                                  .
#.STEP. 0.02                                                                 .
#.t/St. 0.05                                                                 .
#.nScn. 4                                                             .
#.MaxI. 528                                                .
#.    .                                                                      .
#.iScn. 0                                                .
#.STPi. 0.02                                                .
#.PSIi. 0                                                .
#.FETA. -1                                                                   .
150.000     63     68     65     81     57     56     65     72     71     71
150.200     74     67     61     77     70     63     72     75     75     54
150.400     69     74     69     64     63     73     74     61     76     75
150.600     64     68     59     71     78     69     74     69     80     78
150.800     69     70     83     70     76     81     81     83     85     67
151.000     83     72     64     74     75     63     95     84     86     98
151.200    106     83     82     85     82     88     90     82     94     88
151.400     83     80     92     68    100     93     86     96     87    104
151.600     89     89    106    102     95    103     88     89    119     83
151.800    107     92    113    124     96    107    115    107    128    113
152.000    124    126    131    124    123    117    118    126    114    121
152.200    110    121    130    118    135    148    135    134    125    150
152.400    140    126    148    149    147    148    150    153    148    163
152.600    156    164    170    173    168    169    170    196    202    182
152.800    161    179    183    185    198    196    173    195    214    197
153.000    214    197    233    225    220    247    208    223    231    232
153.200    243    227    234    252    248    241    285    251    273    282
153.400    274    261    286    294    263    297    315    311    299    290
153.600    298    318    324    290    332    330    325    324    346    337
153.800    375    392    398    358    374    409    390    384    394    372
154.000    394    423    415    407    435    428    430    442    451    409
154.200    425    421    451    427    462    457    493    480    463    487
154.400    435    452    479    444    479    481    487    473    465    478
154.600    521    500    491    458    480    497    469    521    485    470
154.800    453    477    486    490    515    484    528    476    456    475
155.000    479    431    467    461    429    454    444    485    485    461
155.200    482    474    451    477    433    467    420    470    415    449
155.400    446    473    441    419    424    434    428    440    427    421
155.600    429    414    411    404    379    367    379    385    375    387
155.800    398    393    321    363    353    321    346    364    333    338
156.000    318    325    308    319    323    290    309    283    289    291
156.200    298    269    294    297    276    272    285    282    283    276
156.400    231    263    244    257    222    267    267    227    263    241
156.600    227    247    221    196    241    218    233    232    241    196
156.800    218    218    183    200    192    188    185    201    192    172
157.000    194    196    216    191    179    168    172    155    167    180
157.200    183    145    158    162    153    183    179    159    149    162
157.400    125    174    139    142    157    171    121    141    149    135
157.600    136    144    125    127    136    130    120    152    115    155
157.800    110    115    109    125    149    145    138    125    122    127
158.000    126    124    138    126    112    140     99    104    110    101
158.200    118    107    117    125    103    121    118     87     97     95
158.400    125    100    101    113     97     98     99     86    104     99
158.600     98    101     91     82     92     90     75    116     98     93
158.800     95     92     95     97     80     90     93    102     98    108
159.000     78     93     94     74     78     82     82     93     96     86
159.200     81     76     92     84     85     63     67     85     80     81
159.400     88     82     78     81     56     76     83     91     80     76
159.600     87     73     91     75     80     74     65     62     92     82
159.800     69     81     80     72     67     71     61     66     62     88
160.000     84      0      0      0      0      0      0      0      0      0
#.DATE. 2018-05-28 08:16:39                                                  .
#.GTkV. 25                                                                   .
#.GCmA. 30                                                                   .
#.WLa1. 1.54184                                                              .
#.ANFG. 150                                                                  .
#.ENDE. 160                                                                  .
#.STEP. 0.02                                                                 .
#.t/St. 0.05                                                                 .
#.nScn. 4                                                             .
#.MaxI. 507                                                .
#.    .                                                                      .
#.iScn. 1                                                .
#.STPi. 0.02                                                .
#.PSIi. 15                                                .
#.FETA. -1                                                                   .
150.000     56     66     59     63     73     67     76     44     70     60
150.200     75     62     79     72     66     74     72     73     84     74
150.400     69     64     65     68     65     64     70     65     78     74
150.600     70     65     81     79     67     64     79     73     84     72
150.800     58     75     55     66     65     69     78     82     75     88
151.000     77     82     65     95     71     79     73     85     95     80
151.200     83     77     76     82     92     96     79     78     82     91
151.400     90     90     92     86     87     80     90     96    115     93
151.600     96    105     85     84     97    111     86     86     75    106
151.800    109    123     88     90     99    111    115     97    103    115
152.000    114    102    111     97    128    115    118    125    108    140
152.200    132    133    132    155    133    141    122    128    122    140
152.400    142    147    131    121    156    137    128    158    134    131
152.600    158    166    140    180    165    147    142    161    160    182
152.800    166    192    191    187    181    172    149    159    174    173
153.000    173    201    209    214    211    214    216    213    212    207
153.200    226    231    237    218    235    207    225    254    252    240
153.400    278    260    271    262    292    250    300    307    256    267
153.600    302    295    305    312    309    303    313    341    368    322
153.800    334    363    318    340    351    354    370    415    395    385
154.000    359    351    375    351    416    374    372    417    416    379
154.200    417    429    393    445    438    470    429    431    443    453
154.400    438    464    447    441    449    456    457    471    444    454
154.600    459    498    451    413    477    470    493    454    465    438
154.800    475    456    466    474    468    464    464    474    489    496
155.000    467    470    480    477    494    448    507    486    438    467
155.200    478    456    426    439    460    446    469    454    448    447
155.400    458    440    411    437    445    411    439    387    428    431
155.600    424    424    404    360    368    346    378    414    368    411
155.800    340    392    359    341    338    360    370    340    378    325
156.000    352    346    301    323    322    375    316    320    331    320
156.200    318    310    313    315    286    280    311    299    268    270
156.400    290    260    261    298    255    259    260    236    229    246
156.600    244    251    248    240    228    223    231    211    222    233
156.800    219    180    216    180    240    190    203    201    192    188
157.000    176    186    194    187    198    168    185    173    194    179
157.200    173    160    152    189    179    172    169    156    156    150
157.400    156    164    140    150    170    162    151    150    142    140
157.600    150    124    145    127    126    147    146    134    126    135
157.800    118    138    113    112    131    119    116    138    116    129
158.000    134    114    119    114    117    106    113    120    125    105
158.200    120    117    109    118    100    107    127    113    103    114
158.400    103    113     87    112     95     95    105    105    102     98
158.600    115    101     89     93    103    108     89     88    104    106
158.800     94     86    100     99     77     87     96    100     81     86
159.000     93     99     96     88     97     94     87     90     99     86
159.200     96     86     84     72     82     92     80     83     81     92
159.400     81     71     70     75     91     70     77     72     77     79
159.600     68     81     72     82     75     69     86    100     72     82
159.800     71    102     66     75     62     73     80     67     69     84
160.000     74      0      0      0      0      0      0      0      0      0
#.DATE. 2018-05-28 08:16:39                                                  .
#.GTkV. 25                                                                   .
#.GCmA. 30                                                                   .
#.WLa1. 1.54184                                                              .
#.ANFG. 150                                                                  .
#.ENDE. 160                                                                  .
#.STEP. 0.02                                                                 .
#.t/St. 0.05                                                                 .
#.nScn. 4                                                             .
#.MaxI. 506                                                .
#.    .                                                                      .
#.iScn. 2                                                .
#.STPi. 0.02                                                .
#.PSIi. 20                                                .
#.FETA. -1                                                                   .
150.000     64     58     63     64     67     39     76     47     68     81
150.200     86     70     70     73     55     70     70     69     65     70
150.400     60     58     63     56     68     46     84     74     64     69
150.600     76     71     73     63     77     82     73     78     57     62
150.800     81     62     65     76     77     78     75     78     84     63
151.000     79     69     70     73     90     78     85     73     91     89
151.200     79     77     82     70     74     93     85     74     86    101
151.400     85     86     86     83     96     90     98     98     69     85
151.600     84     88    105     96     90     86     91     85     97    109
151.800     94    120     99     93    109    111     94    121    115     93
152.000    104     99     90    136     85    108    118    119    108    115
152.200    111    111    114    140    128    122    114    111    140    132
152.400    125    151    127    131    133    139    129    120    124    141
152.600    144    157    135    165    137    154    148    169    156    162
152.800    147    162    149    153    156    164    176    169    172    182
153.000    180    200    177    191    193    170    171    214    196    187
153.200    216    218    200    205    225    233    212    222    227    224
153.400    228    218    233    238    252    271    254    299    275    267
153.600    252    279    287    324    277    299    313    297    312    277
153.800    319    315    340    307    318    354    353    351    392    355
154.000    365    336    380    331    386    380    370    403    397    388
154.200    381    368    407    388    409    405    413    400    430    433
154.400    422    387    440    453    449    464    397    430    453    483
154.600    452    464    457    427    476    484    477    435    478    459
154.800    445    470    488    453    454    486    475    464    467    463
155.000    473    506    477    492    482    441    486    436    445    455
155.200    487    477    425    448    420    430    466    426    453    447
155.400    438    415    456    448    432    444    419    449    407    448
155.600    388    415    403    400    401    405    417    383    398    388
155.800    362    412    366    327    397    362    327    334    380    338
156.000    329    315    313    334    355    344    326    341    310    316
156.200    317    294    283    291    261    299    308    298    296    274
156.400    274    294    269    266    277    280    247    309    263    217
156.600    265    246    247    230    267    250    234    207    251    215
156.800    196    229    225    219    217    206    215    202    214    199
157.000    208    203    194    193    204    182    198    156    182    178
157.200    166    159    194    167    181    181    198    184    178    172
157.400    166    166    162    165    156    144    142    132    156    145
157.600    151    160    155    149    153    142    144    140    136    146
157.800    154    132    133    131    110    140    115    122    116    140
158.000    124    128    128    115    139    115    144    127    125    112
158.200    112    128    112    101    104    126    111    123    111    121
158.400    103    111    100    114    100    113    103    102     99    102
158.600    102    113     99    103     96    115     98     94     91     90
158.800     77     99     92     91     87     89     79     94    101    102
159.000     90    103     94     79     85     96     85     86     77     83
159.200     90     99     81     76     94     87     83     95     91     84
159.400     69     87     84     78     82     92     53     88     79     87
159.600     75     88     88     70     67     81     93     74     82     82
159.800     83     79     85     74     69     80     86     65     69     68
160.000     54      0      0      0      0      0      0      0      0      0
#.DATE. 2018-05-28 08:16:39                                                  .
#.GTkV. 25                                                                   .
#.GCmA. 30                                                                   .
#.WLa1. 1.54184                                                              .
#.ANFG. 150                                                                  .
#.ENDE. 160                                                                  .
#.STEP. 0.02                                                                 .
#.t/St. 0.05                                                                 .
#.nScn. 4                                                             .
#.MaxI. 473                                                .
#.    .                                                                      .
#.iScn. 3                                                .
#.STPi. 0.02                                                .
#.PSIi. 30                                                .
#.FETA. -1                                                                   .
150.000     58     74     49     79     58     63     77     57     73     69
150.200     56     66     59     66     61     62     66     48     60     60
150.400     59     74     68     55     58     83     63     71     61     71
150.600     65     64     54     61     75     79     60     66     68     80
150.800     74     68     89     81     71     59     62     71     60     74
151.000     77     88     62     74     73     69     76     64     82     74
151.200     68     82     72     81     65     76     75    101     76     77
151.400     77     85     67     61     78     84     76     72    102     93
151.600     84     89    104     80     89     94     82     80     98     94
151.800     84     76     92     87     96    100     98     99    101    108
152.000    102     95    110     94    109    119     85    113     98     98
152.200    110    109    120    106    116    101    112    104    111    117
152.400    130    101    108    113    118    113    113    126    130    128
152.600    136    144    111    133    133    142    138    164    132    174
152.800    147    134    140    143    149    156    144    173    167    169
153.000    166    158    162    163    160    202    157    181    200    171
153.200    157    190    188    196    191    185    171    220    203    224
153.400    220    192    242    222    212    220    220    204    218    215
153.600    228    214    238    252    243    219    249    233    311    276
153.800    283    279    269    284    274    275    309    255    282    298
154.000    284    291    359    326    329    325    332    376    312    322
154.200    338    361    311    342    393    369    387    391    403    374
154.400    394    389    391    390    412    360    384    401    367    413
154.600    394    421    438    409    435    430    424    400    457    416
154.800    374    460    437    450    426    435    417    444    390    423
155.000    427    430    417    473    441    434    457    408    468    462
155.200    435    432    427    450    427    444    461    397    436    442
155.400    424    455    450    411    432    449    455    401    434    421
155.600    402    415    439    430    420    384    392    411    381    407
155.800    386    400    399    395    356    345    399    382    376    356
156.000    400    347    331    312    380    335    324    346    343    337
156.200    342    325    310    318    352    335    313    328    302    328
156.400    315    299    293    300    277    294    287    285    249    274
156.600    260    275    279    262    264    249    248    237    274    237
156.800    246    232    250    258    249    219    210    222    207    213
157.000    211    205    199    205    189    209    164    174    181    212
157.200    190    186    181    187    189    176    182    187    165    177
157.400    175    172    172    168    179    148    177    165    142    172
157.600    159    177    153    144    147    174    153    163    135    149
157.800    140    160    121    157    143    140    128    144    132    149
158.000    144    134    126    139    128    127    110    136    132    112
158.200    122    119    114    112    100    100    111    117    106    113
158.400    115    121    122    123    114    101    107    116    102    101
158.600    114    103    102    107    106    115     88    117     99     95
158.800    108    106    101    108    108     95     94     97     78     77
159.000     91     88     99     90     90     70     95     97     81     88
159.200     90     82    107    100     67    100    100     79     87     78
159.400     59     81     74     87     92     75     80     82     83     72
159.600     81     78     80     72     79     77     74     93     67     70
159.800     78     77     93     78     73     73     93     84     89     68
160.000     70      0      0      0      0      0      0      0      0      0
#.EOFm.                                                                      .
