#.DATE. 2018-06-23 13:15:29                                                  .
#.GTkV. 25                                                                   .
#.GCmA. 30                                                                   .
#.WLa1. 2.2907                                                              .
#.ANFG. 138                                                                  .
#.ENDE. 162                                                                  .
#.STEP. 0.02                                                                 .
#.t/St. 1                                                                 .
#.nScn. 2                                                             .
#.MaxI. 2933                                                .
#.    .                                                                      .
#.iScn. 1                                                .
#.STPi. 0.02                                                .
#.PSIi. 0                                                .
#.FETA. -1                                                                   .
138.000    250    277    276    266    269    277    283    289    290    293
138.200    313    329    295    251    255    274    268    255    259    270
138.400    289    308    309    307    323    341    326    299    277    260
138.600    263    278    321    364    351    316    289    270    276    289
138.800    289    284    287    295    313    337    368    398    408    403
139.000    366    321    301    296    311    336    363    385    382    370
139.200    366    361    333    304    322    351    350    339    343    355
139.400    379    402    401    389    362    336    337    346    343    340
139.600    364    392    393    387    396    410    416    416    409    403
139.800    412    427    437    446    462    469    424    371    380    421
140.000    495    567    557    523    524    537    535    522    481    440
140.200    457    492    499    492    475    460    482    512    515    516
140.400    562    622    659    671    603    521    529    567    580    584
140.600    598    618    648    671    641    612    701    807    760    670
140.800    671    704    711    706    699    700    744    798    807    797
141.000    774    746    719    698    697    719    808    907    921    914
141.200    975   1039    981    895    906    950    966    973    996   1023
141.400   1035   1038   1025   1021   1102   1203   1239   1237   1177   1113
141.600   1150   1228   1303   1366   1374   1375   1453   1535   1490   1413
141.800   1431   1490   1564   1626   1598   1554   1608   1697   1761   1814
142.000   1857   1907   2009   2107   2085   2026   2020   2030   2012   1988
142.200   1996   2025   2099   2202   2365   2524   2548   2526   2544   2589
142.400   2687   2774   2694   2581   2632   2737   2792   2830   2886   2933
142.600   2897   2836   2823   2832   2851   2865   2827   2772   2732   2714
142.800   2773   2838   2778   2670   2572   2505   2571   2681   2743   2782
143.000   2808   2799   2646   2476   2501   2572   2480   2355   2395   2482
143.200   2476   2440   2445   2443   2318   2178   2210   2289   2266   2204
143.400   2149   2095   2036   1985   1992   2024   2063   2086   2014   1912
143.600   1852   1810   1778   1754   1755   1767   1789   1809   1799   1776
143.800   1751   1711   1596   1466   1404   1376   1377   1386   1383   1374
144.000   1362   1352   1362   1374   1358   1328   1288   1253   1263   1284
144.200   1273   1244   1190   1140   1157   1185   1136   1063   1023   1005
144.400   1026   1050   1017    963    916    874    843    827    861    911
144.600    941    956    933    885    789    693    698    737    736    721
144.800    709    707    744    776    711    619    584    570    547    530
145.000    557    591    575    542    525    513    488    461    452    458
145.200    501    539    475    394    425    491    507    494    441    383
145.400    388    410    387    351    333    327    338    351    339    320
145.600    319    322    307    285    265    249    253    263    264    266
145.800    288    310    291    257    236    223    222    225    228    229
146.000    227    222    217    214    229    246    233    213    210    216
146.200    233    248    223    190    189    195    174    151    175    204
146.400    171    125    139    172    177    168    147    124    111    105
146.600    107    114    125    138    157    176    179    176    179    181
146.800    160    134    130    133    131    128    131    137    138    143
147.000    173    205    195    173    170    172    167    160    155    149
147.200    138    124    113    106    114    128    142    155    163    170
147.400    181    189    182    173    187    202    174    138    154    180
147.600    157    121    115    121    126    128    125    122    132    145
147.800    143    134    118    105    117    136    140    140    145    150
148.000    137    123    144    171    163    147    159    176    156    128
148.200    130    141    137    127    117    112    131    154    155    146
148.400    132    119    118    124    140    153    132    106    117    134
148.600    109     78     97    131    137    132    132    134    139    145
148.800    146    142    116     91    106    130    116     94    110    136
149.000    132    118    111    106     97     93    114    140    136    122
149.200    118    119    125    129    113     91     79     70     56     49
149.400     85    132    139    130    118    111    137    170    168    153
149.600    145    137    121    101     84     72     80     95    102    106
149.800    111    115    104     91     93     95     64     32     63    115
150.000    145    160    140    111    107    112    111    111    131    151
150.200    132    101     85     82    109    143    144    131    116    100
150.400     82     71     90    122    151    171    154    129    139    159
150.600    159    148    120     93    101    120    123    120    125    132
150.800    132    128    109     90     96    111    118    120    112    101
151.000     96     94     92     96    125    156    144    117    105    101
151.200    107    117    125    131    127    123    141    158    128     87
151.400     81     87     85     81     87     97    109    118    112    103
151.600    114    125    103     77    102    141    140    129    145    167
151.800    171    166    156    143    128    112     98     84     73     65
152.000     62     64     74     89    109    121     82     35     54     96
152.200    113    119    115    113    141    172    155    126    133    149
152.400    130    101     85     81    104    131    123    104    100    102
152.600    107    113    119    123    112     96     78     68     98    139
152.800    150    150    152    151    135    115    107    104    111    119
153.000    117    113    119    125    114    103    124    151    143    122
153.200    109    105    126    151    139    116    103     96     94     97
153.400    117    138    136    124    115    106     92     78     74     78
153.600    100    124    118    102     91     85     89    101    133    162
153.800    134     89     68     58     61     72     96    122    125    117
154.000     97     75     63     58     65     78     96    109     92     65
154.200     56     58     79    103    108    106     99     93     95    100
154.400     97     89     74     66    103    145    114     60     41     41
154.600     71    107    116    115    116    116    106     90     64     47
154.800     97    155    128     74     62     66     75     81     70     56
155.000     62     74     73     67     61     59     75     95     93     84
155.200     75     70     82     96     92     81     76     77     90    103
155.400     91     73     78     89     85     76     67     64     88    114
155.600    102     78     77     82     74     63     70     81     72     60
155.800     65     78     97    113     96     69     57     52     52     56
156.000     72     88     84     72     65     59     56     56     61     70
156.200     86     98     80     54     51     58     69     76     58     33
156.400     23     24     51     85     94     90     66     42     58     84
156.600     80     65     52     45     64     91    102    103     89     71
156.800     63     59     56     58     77    100    108    107     89     71
157.000     80     97    100    100    107    114    106     96    106    120
157.200    116    101     76     54     70     97     97     84     56     29
157.400     32     47     55     63     80     95     88     73     63     57
157.600     58     65     88    114    115    106     92     77     64     58
157.800     87    122    122    108     92     80     90    107    117    120
158.000     96     64     39     25     54     94    104     99     78     55
158.200     58     68     55     39     55     80     91    100    121    140
158.400    124     95     71     54     65     82     74     57     44     39
158.600     72    114    123    117    104     88     72     59     63     74
158.800     90    105    103     96     92     89     78     67     69     74
159.000     66     55     61     69     58     47     70    101    108    105
159.200     96     86     89     92     67     39     56     85     92     90
159.400     83     75     65     57     56     59     67     78     94    106
159.600     88     62     58     61     62     65     83     97     63     18
159.800     20     36     32     25     44     68     62     49     60     75
160.000     68     53     41     35     48     66     75     85    115    145
160.200    135    108     76     46     33     34     70    110     98     74
160.400     90    113     89     56     67     87     72     47     50     64
160.600     78     87     66     37     21     19     56     99     98     85
160.800     94    104     77     41     35     43     56     68     62     48
161.000     36     32     68    110    107     88     87     91     82     69
161.200     61     59     75     89     55     14     36     76     76     62
161.400     55     51     52     55     65     72     57     35     23     20
161.600     39     59     40     12     14     29     44     58     59     55
161.800     52     48     31     16     34     60     58     49     65     84
#.iScn. 2                                                .
#.STPi. 0.02                                                .
#.PSIi. 24                                                .
#.FETA. -1                                                                   .
138.000    104     70     66     75     92    110    118    121    118    115
138.200    128    141    119     89     88     94     83     73    100    130
138.400    100     52     39     42     63     91    114    131    120    102
138.600    109    122    118    107     91     77     80     85     68     49
138.800     67     92     85     70     80     99    110    121    149    171
139.000    136     88     90    110    118    120    107     94    106    124
139.200    122    114    114    117    115    111    104     97     97     95
139.400     73     49     55     69     66     58     60     68     83     99
139.600    108    107     68     24     33     63     90    112    119    114
139.800     87     58     63     81    104    123    119    110    131    153
140.000    125     82     66     61     61     65     84    105    114    118
140.200    117    112     89     61     48     43     53     71    102    135
140.400    153    163    158    143    105     69     91    125     97     56
140.600     69     96     89     71     63     61     64     77    122    166
140.800    141     93     62     48     84    131    135    118     87     59
141.000     68     91    111    126    126    121    121    122    118    111
141.200     99     87     90     94     78     63     93    131    121     96
141.400     97    109    118    123    116    100     64     29     39     65
141.600     80     88     89     90    103    114     95     69     76     96
141.800    116    132    123    105     89     78     90    110    117    115
142.000     96     74     69     72     80     87     79     73    108    151
142.200    149    129    108     93    113    142    147    141    120    101
142.400    114    132    111     82     83     97    108    116    115    111
142.600    104     92     63     39     75    123    106     70     62     69
142.800     88    110    125    132    109     86    115    156    155    135
143.000    105     78     83     97     91     79     82     90     96     97
143.200     75     53     79    117    115     99     90     87     99    113
143.400    112    106    112    121    125    130    150    166    132     83
143.600     59     51     76    105     87     60     75    106    132    149
143.800    131    104    104    108     85     56     49     53     70     91
144.000    107    118    112    103    106    111    101     84     65     51
144.200     64     86    101    110    104     95    101    109     94     78
144.400    104    141    153    150    123     93     90    101    125    146
144.600    122     90    108    134    100     51     47     60     66     69
144.800     67     64     63     64     72     81     88     95    104    106
145.000     68     25     40     72     71     62     81    103     85     57
145.200     59     71     73     70     62     57     74     95     94     87
145.400     93    106    121    136    149    156    137    104     61     26
145.600     56     99     75     34     35     51     62     71     87    101
145.800     95     85     98    116    116    104     75     45     45     56
146.000     61     62     58     56     77    102    100     91     92     95
146.200     81     63     54     51     63     79     85     84     71     57
146.400     65     84    116    144    122     85     73     71     69     68
146.600     74     79     67     51     42     43     82    127    129    112
146.800     88     68     80    100    102     93     72     55     80    113
147.000    101     71     46     31     59     99    109    105     91     76
147.200     78     90    122    155    151    133    112     90     73     65
147.400    100    145    154    144    115     87     98    120    122    115
147.600    106     96     83     73     83    100    115    129    140    142
147.800    109     67     57     58     57     56     58     65     86    105
148.000     94     72     58     53     73     97     88     67     52     44
148.200     51     63     67     68     77     83     56     23     27     43
148.400     50     56     71     91    126    152    106     43     32     42
148.600     53     66     81     94     90     80     67     58     77    101
148.800     97     85     96    110     94     73     87    110    105     89
149.000     75     64     68     78     88     98    109    113     76     34
149.200     53     89     85     70     80     98    103    104    112    117
149.400    102     79     63     51     50     57     79    100     81     51
149.600     41     45     81    120    112     87     69     54     44     42
149.800     68     99     97     84     88     95     90     78     58     42
150.000     66     99    100     92    103    111     74     27     28     48
150.200     68     86     94     96     87     79    106    138    130    107
150.400     89     81    116    153    115     58     55     70     75     75
150.600     77     77     68     61     76     95     87     74     88    105
150.800     85     58     63     76     67     53     59     73     85     95
151.000     90     80     67     58     79    103     87     57     37     25
151.200     35     54     78    101    109    108     93     76     69     66
151.400     58     51     56     66     77     88     91     90     84     75
151.600     64     58     81    109    112    102     80     56     44     40
151.800     58     84    110    128    109     82     87     99     82     58
152.000     53     56     64     72     73     69     55     41     45     56
152.200     62     64     55     40     25     17     49     90     99     92
152.400     65     37     39     50     46     41     61     89    104    108
152.600     85     55     47     45     33     22     39     63     64     63
152.800     99    136    109     68     81    108    105     87     62     39
153.000     41     55     74     91     85     72     74     79     67     55
153.200     73     97     91     75     71     71     71     70     64     60
153.400     79     99     78     49     70    102     94     72     60     55
153.600     68     85     86     82     91    101     89     70     56     47
153.800     50     59     76     91     80     60     53     49     37     25
154.000     35     53     72     89     86     76     68     62     64     72
154.200     90    109    110     99     66     32     35     49     48     45
154.400     67     93     87     74     88    109    118    118     97     67
154.600     38     15     12     21     43     68     75     79    103    126
154.800    106     71     56     51     64     84    103    119    125    120
155.000     83     45     67    106    112    107    120    136    129    111
155.200     86     64     67     77     67     51     45     45     53     63
155.400     60     56     72     92     92     83     71     61     71     84
155.600     73     57     60     69     76     82     86     90     91     91
155.800     89     87     83     79     74     68     63     61     69     80
156.000     81     82     95    110    111    103     74     42     43     57
156.200     68     77     81     81     74     63     44     28     42     68
156.400     94    113     98     75     76     86     96    103     95     84
156.600     88     95     90     87    117    152    142    113     74     41
156.800     50     72     75     72     69     68     74     80     76     63
157.000     28      0      0     16     51     52     40     28     23     53
157.180     86     64     31     52     82     57     18     24     47     68
157.380     84     79     66     59     57     64     72     71     66     51
157.580     39     55     80     85     84     86     88     79     63     38
157.780     15     16     25     32     40     58     77     79     76     78
157.980     79     65     49     48     54     62     73     97    120    110
158.180     85     58     37     48     70     84     92     91     89     92
158.380     96     90     84     98    114     98     72     55     45     55
158.580     68     57     41     44     54     69     82     82     75     64
158.780     54     51     48     32     16     33     59     63     61     64
158.980     71     85     97     91     78     70     64     58     51     44
159.180     37     37     46     90    136    127     93     47      8     26
159.380     60     62     56     72     89     73     46     37     36     40
159.580     45     42     40     58     78     71     58     67     80     69
159.780     53     54     59     51     38     35     35     37     40     53
159.980     65     59     48     52     61     70     80    100    116     94
160.180     58     35     21     27     41     52     60     59     59     74
160.380     91     83     66     56     50     54     61     61     62     75
160.580     88     79     62     48     41     56     75     72     59     41
160.780     24     21     22     18     17     44     77     83     78     63
160.980     46     36     29     29     31     38     46     57     66     57
161.180     46     63     84     67     42     54     75     71     57     43
161.380     31     34     39     29     17     23     36     42     46     45
161.580     43     39     39     58     77     64     44     51     64     57
161.780     43     41     42     43     44     52     59     56     47     36
161.980     29      0      0      0      0      0      0      0      0      0
#.EOFm.                                                                      .
