#.DATE. 2018-06-23 13:04:06                                                  .
#.GTkV. 25                                                                   .
#.GCmA. 30                                                                   .
#.WLa1. 2.2907                                                              .
#.ANFG. 138                                                                  .
#.ENDE. 162                                                                  .
#.STEP. 0.02                                                                 .
#.t/St. 1                                                                 .
#.nScn. 2                                                             .
#.MaxI. 1094                                                .
#.    .                                                                      .
#.iScn. 1                                                .
#.STPi. 0.02                                                .
#.PSIi. 0                                                .
#.FETA. -1                                                                   .
138.000    588    604    622    635    625    604    583    567    583    609
138.200    626    640    651    654    624    595    641    708    730    727
138.400    690    651    664    697    723    748    780    802    766    721
138.600    752    810    847    867    847    815    804    801    788    778
138.800    796    814    767    696    632    591    658    758    808    835
139.000    846    838    775    718    806    918    858    760    809    894
139.200    867    813    851    913    913    887    853    838    941   1062
139.400   1035    962    952    967    975    982    989    986    925    851
139.600    827    822    817    831    947   1079   1094   1055    981    910
139.800    926    974   1014   1036    989    935    978   1050   1074   1071
140.000   1034   1000   1041   1094   1052    987    999   1027    988    939
140.200    972   1021    987    933    950    995   1035   1052    964    848
140.400    801    797    874    973   1016   1022    959    896    963   1055
140.600   1004    915    922    958    939    911    940    974    919    842
140.800    827    835    836    840    871    903    887    859    876    903
141.000    897    877    858    835    787    750    817    904    886    840
141.200    867    914    914    897    882    871    878    882    833    773
141.400    761    762    726    685    684    704    744    784    781    758
141.600    723    684    650    628    654    691    682    657    652    648
141.800    614    583    629    689    674    639    657    689    679    653
142.000    627    609    628    651    621    582    611    654    632    595
142.200    615    649    643    627    639    661    671    679    694    701
142.400    655    588    527    484    516    569    574    565    579    600
142.600    608    603    566    524    521    530    527    516    487    460
142.800    481    513    505    492    532    588    613    612    547    476
143.000    500    554    565    554    520    476    437    415    473    541
143.200    501    437    474    530    473    386    374    392    408    419
143.400    403    383    390    409    436    461    461    448    420    388
143.600    365    350    361    384    407    422    394    361    395    447
143.800    459    453    438    422    416    411    391    366    343    329
144.000    353    389    403    408    408    403    380    352    336    330
144.200    355    383    360    325    338    365    365    359    370    388
144.400    406    421    419    408    379    350    359    374    344    310
144.600    344    395    386    357    345    337    322    308    314    321
144.800    292    261    300    350    320    269    275    302    327    347
145.000    344    335    342    347    307    262    281    316    306    288
145.200    323    363    323    264    272    305    336    360    354    335
145.400    310    284    269    263    277    286    229    165    202    272
145.600    301    308    290    266    265    272    276    279    285    294
145.800    306    311    270    217    199    198    213    233    240    244
146.000    256    277    320    352    287    199    193    218    236    253
146.200    277    290    241    182    195    234    256    270    271    266
146.400    257    249    250    246    205    164    195    246    252    244
146.600    256    270    259    236    211    197    238    293    300    284
146.800    251    217    213    220    220    218    213    215    260    308
147.000    283    238    238    252    246    236    246    260    256    239
147.200    202    157    120    101    152    216    198    157    158    178
147.400    211    241    230    209    226    251    239    216    205    204
147.600    230    260    261    253    250    250    248    253    290    322
147.800    264    187    197    230    213    181    182    193    186    184
148.000    245    310    270    196    157    138    146    160    157    152
148.200    171    198    221    235    209    170    143    131    169    219
148.400    227    225    253    284    268    238    225    218    208    199
148.600    205    212    195    179    212    256    265    262    274    282
148.800    238    187    201    235    237    225    200    176    184    201
149.000    208    204    172    132    113    111    148    196    224    238
149.200    227    207    199    193    178    166    179    202    217    225
149.400    214    199    198    197    174    150    168    197    203    200
149.600    203    204    175    142    144    161    183    205    217    219
149.800    193    164    183    213    203    179    162    144    104     67
150.000     85    122    141    155    179    201    194    177    162    152
150.200    164    183    197    205    194    181    188    197    173    142
150.400    144    159    171    180    182    188    222    256    227    180
150.600    166    166    168    171    177    185    191    195    189    179
150.800    166    155    157    161    142    119    124    138    144    147
151.000    158    171    174    178    200    221    194    163    205    259
151.200    221    163    182    221    203    171    179    202    222    234
151.400    219    197    190    188    174    162    175    197    209    216
151.600    216    210    184    157    160    170    152    131    155    188
151.800    176    152    158    174    182    184    181    181    213    244
152.000    213    170    189    225    222    204    185    169    178    193
152.200    195    194    213    232    214    192    217    251    235    202
152.400    189    184    187    191    184    171    154    143    167    197
152.600    187    170    193    219    175    121    154    210    206    184
152.800    195    214    205    187    184    179    141     99    108    140
153.000    177    212    219    213    197    176    155    133    113     97
153.200    102    118    141    168    200    226    212    189    199    217
153.400    202    175    158    152    184    221    203    167    153    149
153.600    158    170    167    157    137    117    117    123    116    111
153.800    146    186    174    152    177    209    182    138    124    127
154.000    152    182    195    199    188    175    174    184    225    260
154.200    197    108     86     92    109    131    150    161    137    104
154.400     94    107    187    270    241    175    144    130    124    126
154.600    148    171    159    139    148    163    158    142    114     92
154.800    118    156    153    133    114    101    112    127    120    112
155.000    146    189    200    198    193    182    144    110    146    194
155.200    159     99     82     84     93    108    138    169    180    182
155.400    182    180    168    153    143    135    129    129    162    194
155.600    153     93     83     92     94     96    110    125    127    124
155.800    126    131    146    160    154    144    157    176    177    167
156.000    140    114    128    151    134    111    135    170    170    152
156.200    114     80    104    151    193    221    191    143    128    124
156.400    107     91    105    133    171    200    164    109     87     85
156.600    113    146    141    121    104     95    118    148    148    135
156.800    120    108    118    133    133    127    119    116    136    158
157.000    139    106     91     85     89     99    119    140    146    143
157.200    125    107    117    140    168    191    174    147    142    146
157.400    153    159    155    148    143    136    119    105    131    165
157.600    162    144    125    113    141    175    159    129    130    144
157.800    155    160    138    120    172    233    201    142    140    155
158.000    145    128    126    125    102     80    105    144    158    163
158.200    176    189    189    182    173    160    132     96     49     12
158.400     50    111    137    142    115     86    112    152    150    133
158.600    121    117    143    170    137     92    100    128    146    156
158.800    145    125    105     91    107    130    129    120    115    114
159.000    133    154    148    133    120    107     89     70     57     51
159.200     64     86    118    150    165    173    178    177    152    122
159.400    109    101     86     75     98    130    142    145    148    150
159.600    152    154    154    151    130    102     77     61     87    120
159.800    111     94    119    159    187    200    160    108    104    117
160.000    115    107     99     95    113    132    114     88     90    103
160.200    110    117    139    156    118     66     57     68     94    122
160.400    128    125    116    103     88     73     63     62     94    132
160.600    127    106     93     87    101    121    128    132    148    163
160.800    154    136    117    101    106    118    120    119    120    121
161.000    120    120    127    133    119     95     64     43     82    135
161.200    135    120    138    163    153    131    116    100     64     27
161.400     30     53    104    156    155    133    113     97    104    121
161.600    140    151    117     73     69     78     73     67     78     99
161.800    133    164    152    127    130    139    120     95     97    110
#.iScn. 2                                                .
#.STPi. 0.02                                                .
#.PSIi. 24                                                .
#.FETA. -1                                                                   .
138.000     76    106    116    120    131    141    129    112    112    116
138.200    112    106    111    118    110    100    110    124    115     94
138.400     61     29     22     30     56     85     86     81     99    119
138.600     99     70     76     93     95     89     75     60     60     67
138.800     82     95     80     59     65     80     90     96     95     92
139.000     92     94     91     89     97    104     84     60     65     80
139.200     93    100     79     54     67     91     95     92     91     91
139.400     94     96     86     72     57     44     46     58     93    127
139.600    109     75     61     54     41     28     35     50     72     93
139.800    100     95     55     13     31     68     79     79     84     90
140.000     99    104     79     49     49     59     57     55     70     90
140.200    102    109    116    117     96     69     57     52     49     52
140.400     83    117    110     88     76     68     60     58     87    118
140.600     94     59     74    103     95     75     65     57     36     18
140.800     38     66     56     36     48     69     80     85     87     89
141.000    104    119    109     91     83     79     77     75     73     72
141.200     74     79     91    100     86     68     80     99     96     85
141.400     79     74     64     54     52     57     72     87     79     61
141.600     43     32     54     87    107    114     86     51     53     66
141.800     65     57     38     21     39     64     54     36     49     72
142.000     79     81     94    108    101     87     88     93     96     99
142.200    102    103     91     75     67     63     57     53     58     64
142.400     65     65     77     88     74     58     82    114    107     90
142.600     97    109    102     92     99    108     95     76     72     72
142.800     59     45     53     66     65     64     83    105     95     74
143.000     58     51     78    114    135    140    103     58     58     76
143.200     91     99     80     58     75    101     97     83     80     82
143.400     83     84     90     97    102    105    100     91     82     73
143.600     67     65     71     80     81     81     93    107    112    110
143.800     83     52     43     45     57     70     71     67     60     57
144.000     84    112     88     49     35     34     50     71     87     98
144.200     94     84     77     70     53     40     59     90    116    131
144.400    106     69     57     56     58     62     64     64     54     45
144.600     56     75     87     93     79     59     48     43     56     73
144.800     75     72     72     74     75     74     73     71     72     74
145.000     76     78     80     80     69     56     58     63     56     46
145.200     48     54     62     65     44     23     44     76     76     65
145.400     59     55     48     43     56     71     59     41     42     50
145.600     59     69     76     83     93     99     75     46     50     68
145.800     86     99     84     61     53     51     51     51     56     63
146.000     78     91     78     57     51     52     61     71     68     62
146.200     67     75     73     68     68     70     67     67     85    106
146.400    102     88     73     58     51     46     36     31     58     91
146.600     92     84     94    107     95     77     79     89     99    107
146.800    104     97     95     95     96     96     81     67     81    102
147.000     97     82     75     72     71     73     88    104    102     92
147.200     85     81     87     97    102    101     77     48     47     58
147.400     71     81     69     54     64     81     80     75     85     98
147.600     97     91     85     79     70     60     50     45     65     92
147.800    102    102     82     58     54     58     60     62     61     59
148.000     60     62     64     66     67     66     63     58     50     44
148.200     60     81     90     94     95     96    105    114    105     87
148.400     59     35     52     83     96     98     82     58     37     22
148.600     34     53     55     54     65     79     84     85     80     75
148.800     88    104    102     92     80     71     74     80     76     68
149.000     65     62     52     46     67     92     85     75    113    158
149.200    137     93     70     61     77     99    101     93     70     44
149.400     30     23     29     45     79    113    104     83     89    102
149.600    101     95     88     81     84     87     77     65     76     87
149.800     55     14     20     42     54     59     54     48     62     81
150.000     87     84     69     51     43     44     70    100     98     83
150.200     62     41     36     40     54     70     71     68     68     69
150.400     60     52     66     85     91     89     82     73     71     69
150.600     62     56     70     86     75     57     56     60     57     50
150.800     37     31     78    131    107     60     48     50     49     45
151.000     33     21     32     47     37     22     32     50     60     67
151.200     82     95     80     58     58     64     63     60     64     69
151.400     67     63     61     56     39     27     60    102     94     70
151.600     63     62     57     52     47     43     37     32     32     35
151.800     40     47     57     67     69     65     54     44     54     71
152.000     80     84     81     76     75     74     69     66     75     85
152.200     75     58     48     40     37     36     38     44     57     71
152.400     76     74     52     28     34     49     48     43     56     71
152.600     61     47     61     85     94     99    106    110     94     73
152.800     68     68     57     47     72    104    104     92     80     70
153.000     72     78     84     90     98    103     93     81     90    102
153.200     79     52     72    100     80     45     38     44     58     72
153.400     65     55     78    108    105     90     81     75     68     60
153.600     55     50     38     31     59     93     82     56     38     27
153.800     28     35     49     64     77     91    115    135    115     83
154.000     68     61     59     59     60     66     87    105     73     30
154.200     32     49     51     48     52     58     64     68     60     47
154.400     29     15     31     55     56     49     50     55     63     69
154.600     52     30     26     30     31     30     27     24     23     25
154.800     37     51     58     62     68     73     71     70     84    103
155.000    115    121    107     85     60     37     31     31     32     37
155.200     52     68     62     52     59     70     64     53     45     41
155.400     42     46     47     46     41     34     22     14     36     65
155.600     69     65     71     78     69     55     51     52     58     67
155.800     81     92     83     70     80     94     75     47     39     42
156.000     61     82     77     62     52     43     30     22     41     65
156.200     59     43     40     44     58     71     54     30     23     24
156.400     30     39     53     63     48     26     26     33     36     39
156.600     46     52     49     44     44     48     57     67     67     62
156.800     52     41     37     35     31     28     30     34     40     43
157.000     33     23     48     79     75     58     44     37     55     78
157.200     76     65     61     60     67     77     84     87     73     54
157.400     40     30     30     33     28     25     48     75     62     38
157.600     32     34     31     32     56     84     79     64     66     74
157.800     82     84     61     35     52     80     78     65     56     49
158.000     52     57     57     53     42     34     55     82     84     76
158.200     69     65     66     70     72     73     66     55     42     29
158.400     21     15      9      6     15     30     48     67     78     85
158.600     87     83     60     39     60     94    108    106     67     24
158.800     31     57     75     87     89     84     62     43     67     99
159.000     78     44     48     67     78     83     74     61     48     41
159.200     59     82     77     63     60     64     78     92     83     66
159.400     54     50     76    105     92     64     46     36     45     56
159.600     42     25     43     70     75     69     53     35     29     30
159.800     48     71     89    100     89     69     49     34     41     53
160.000     45     33     44     61     65     61     50     42     59     79
160.200     61     34     40     61     85    103     76     37     21     21
160.400     48     76     54     20     26     46     54     56     48     38
160.600     40     43     29     15     31     58     82     95     65     24
160.800     23     35     37     37     50     67     74     73     47     19
161.000     33     60     70     73     71     66     54     41     33     28
161.200     23     21     27     34     26     14     11     12     23     38
161.400     56     71     61     43     32     28     47     71     72     64
161.600     57     53     59     65     46     22     20     25     27     32
161.800     65     99     85     51     20      0      0     11     37     53
161.980     61      0      0      0      0      0      0      0      0      0
#.EOFm.                                                                      .
