#.DATE. 2018-06-23 13:13:49                                                  .
#.GTkV. 25                                                                   .
#.GCmA. 30                                                                   .
#.WLa1. 2.2907                                                              .
#.ANFG. 138                                                                  .
#.ENDE. 162                                                                  .
#.STEP. 0.02                                                                 .
#.t/St. 1                                                                 .
#.nScn. 2                                                             .
#.MaxI. 1172                                                .
#.    .                                                                      .
#.iScn. 1                                                .
#.STPi. 0.02                                                .
#.PSIi. 0                                                .
#.FETA. -1                                                                   .
138.000    551    573    554    523    517    520    518    517    532    550
138.200    547    543    582    629    633    637    729    824    754    641
138.400    643    687    713    729    737    747    788    826    783    717
138.600    702    717    777    841    834    800    776    763    786    818
138.800    815    791    729    678    764    878    865    814    825    857
139.000    872    875    851    825    838    863    876    879    855    820
139.200    775    748    823    923    948    936    897    861    890    933
139.400    908    872    919    981    955    900    882    887    938    993
139.600    972    925    906    895    867    847    896    963    988    990
139.800    964    935    954    987    992    996   1050   1110   1100   1055
140.000    973    899    932   1006   1070   1125   1160   1172   1116   1039
140.200   1002    977    937    907    959   1028   1027    995    955    920
140.400    935    957    919    878    944   1024    967    878    902    965
140.600    993   1000    972    933    906    899    967   1031    928    791
140.800    818    896    905    882    833    782    781    800    822    842
141.000    839    836    879    926    897    845    836    842    835    823
141.200    811    794    757    722    742    783    819    847    847    832
141.400    802    763    714    670    676    699    710    713    701    680
141.600    639    602    618    651    654    658    722    787    739    658
141.800    645    666    717    766    738    683    643    625    684    756
142.000    741    694    659    635    643    660    662    650    598    541
142.200    544    573    617    659    663    653    654    654    623    585
142.400    582    592    600    608    616    626    648    668    661    632
142.600    545    452    447    485    562    632    592    517    488    482
142.800    496    519    547    567    532    478    431    404    467    548
143.000    542    513    536    572    568    540    472    410    461    533
143.200    487    408    402    419    403    381    402    440    475    496
143.400    452    394    398    419    405    386    417    456    440    403
143.600    371    349    367    395    396    382    347    315    343    384
143.800    375    351    357    371    368    361    364    370    363    357
144.000    382    409    381    339    336    353    396    440    434    404
144.200    353    302    301    313    295    274    301    340    343    337
144.400    362    394    395    379    348    314    298    286    252    221
144.600    240    276    292    296    280    265    295    337    346    334
144.800    287    238    256    293    298    295    319    344    324    293
145.000    295    306    290    264    238    216    209    213    237    266
145.200    277    280    278    272    257    244    255    273    282    284
145.400    263    241    262    292    277    249    243    243    233    223
145.600    236    252    238    224    267    317    289    241    253    276
145.800    239    190    208    246    257    256    250    241    224    207
146.000    206    213    225    240    259    270    239    206    245    296
146.200    263    203    172    163    214    275    273    248    238    234
146.400    231    230    231    230    214    194    186    180    167    154
146.600    158    168    176    182    176    169    174    180    168    151
146.800    149    154    169    191    233    270    244    202    211    236
147.000    235    224    219    218    221    224    223    224    235    244
147.200    218    182    164    162    200    244    235    212    226    250
147.400    254    248    235    222    222    229    241    250    234    213
147.600    214    223    230    236    237    236    230    221    205    187
147.800    168    152    157    171    180    191    214    236    233    223
148.000    236    250    221    182    176    184    194    200    188    172
148.200    176    184    177    166    170    177    172    165    173    187
148.400    200    215    245    267    220    158    156    175    174    166
148.600    155    148    167    198    231    253    217    169    182    212
148.800    202    184    201    226    218    194    162    131    130    141
149.000    157    173    179    183    197    207    175    137    147    176
149.200    195    210    218    217    178    132    128    140    157    176
149.400    202    217    172    116    130    168    189    198    182    164
149.600    183    213    226    229    216    193    160    128    124    134
149.800    152    174    193    206    192    179    218    259    205    129
150.000    136    172    190    204    240    270    235    183    179    191
150.200    183    169    165    162    142    129    178    235    205    148
150.400    128    124    128    134    128    123    143    172    196    216
150.600    223    220    194    159    130    113    138    171    159    140
150.800    176    223    213    180    139    101     94    103    122    145
151.000    165    178    166    149    160    174    145    109    123    155
151.200    177    188    167    142    161    184    143     90    102    140
151.400    178    202    153     92    119    168    152    121    140    174
151.600    176    166    151    140    151    167    164    155    146    140
151.800    142    144    126    106    116    138    157    174    189    198
152.000    179    156    166    181    148    111    150    205    182    138
152.200    144    166    168    162    159    159    168    178    181    182
152.400    190    195    173    149    165    190    180    160    162    167
152.600    150    127    119    124    159    197    182    153    162    183
152.800    191    193    198    196    153    102    101    118    133    146
153.000    151    157    181    208    208    193    150    109    135    185
153.200    225    251    230    193    171    157    151    150    154    162
153.400    175    186    169    146    151    162    150    132    136    147
153.600    153    158    169    179    168    153    164    181    170    151
153.800    150    154    145    134    141    156    175    195    220    233
154.000    183    121    134    170    176    169    157    144    139    135
154.200    121    112    145    181    149     99    102    124    133    140
154.400    167    190    156    106     88     84     92     99     81     61
154.600     84    123    155    177    158    131    149    175    154    121
154.800    123    135    129    119    127    141    147    144    119     94
155.000    114    145    138    116     92     70     56     56    106    164
155.200    157    131    133    142    125    100     95    101    125    153
155.400    161    160    154    142    112     86    118    165    169    156
155.600    146    140    142    149    156    165    179    188    159    117
155.800     90     77    112    151    112     56     72    108    105     92
156.000    101    116    119    122    150    180    167    140    131    127
156.200    110     90     82     82    107    137    150    157    164    168
156.400    150    132    153    181    174    155    151    152    146    145
156.600    177    211    182    129     81     44     54     77     78     72
156.800     73     79     95    111    108    103    118    134    108     71
157.000     58     62    106    158    170    160    125     88     99    126
157.200    133    128     98     63     51     50     54     61     70     79
157.400     85     86     73     60     71     87     88     90    134    180
157.600    157    119    140    171    142    103    137    192    204    196
157.800    178    159    157    157    138    116    114    119    114    112
158.000    142    174    158    129    138    154    132     99     91     97
158.200    125    154    151    136    124    113     92     73     79     95
158.400    113    128    130    123    106     90    106    129    130    121
158.600    109    101    121    146    136    112     85     65     88    126
158.800    154    171    153    124    110    104    110    116    102     83
159.000     77     76     70     67     89    115    108     93    103    119
159.200    116    108    109    115    136    151    111     62     80    115
159.400    110     89     76     71     91    117    120    120    148    180
159.600    172    145    105     64     51     53     74     97     96     91
159.800    110    129    104     73     97    137    144    140    144    146
160.000    116     79     62     68    141    219    190    125     95     83
160.200     88     99    106    110    103     95    108    128    137    140
160.400    141    140    136    127    106     91    128    169    128     66
160.600     61     73     53     29     47     76     80     77     89     99
160.800     72     37     36     50     74     97    100     96    102    108
161.000     92     75     93    121    131    129    109     89    109    141
161.200    156    159    134     97     55     23     54     99     86     57
161.400     64     83     87     82     61     42     69    107    100     84
161.600    105    141    180    204    146     68     49     54     69     85
161.800     91     91     79     65     63     67     84    106    128    147
#.iScn. 2                                                .
#.STPi. 0.02                                                .
#.PSIi. 24                                                .
#.FETA. -1                                                                   .
138.000    110     98     91     89     97    108    111    111    111    109
138.200    102     91     73     57     63     76     82     86     88     89
138.400     80     72     81     98    120    138    127    111    125    144
138.600    125     96     90     97    116    135    130    118    113    108
138.800     86     64     72     89     93     93    101    111    109    101
139.000     80     57     52     59     88    118    108     86     82     86
139.200     90     91     75     60     79    105    101     86     79     77
139.400     82     87     80     72     82     96     89     74     64     58
139.600     67     76     60     41     57     81     77     61     50     43
139.800     51     65     81     96    111    119     97     67     55     52
140.000     54     61     85    110    113    112    133    154    128     92
140.200     93    103     86     61     51     48     52     61     83    105
140.400     95     75     62     53     49     48     55     65     74     82
140.600     93    102     98     93    116    142    128    102     93     93
140.800    105    117    114    100     68     37     54     84     86     77
141.000     76     77     70     62     67     78     91    104    114    123
141.200    137    147    127     98     84     78     87     94     68     34
141.400     33     44     48     51     54     60     74     88     81     69
141.600     80    101    127    147    129     98     84     80    101    124
141.800    112     91     95    102     77     48     59     84     94     97
142.000     97     93     81     66     59     56     60     67     82     93
142.200     69     38     37     49     61     74     92    110    118    119
142.400    102     79     64     57     77    102    102     92     82     74
142.600     79     85     70     51     62     80     76     69     84    104
142.800    109    106     96     81     51     24     42     74     84     85
143.000     80     74     79     86     75     60     63     73     83     92
143.200     93     92     94     96     86     75     78     84     85     84
143.400     86     89     84     77     76     80     91    101     91     74
143.600     64     58     67     79     84     83     67     51     65     90
143.800    105    116    119    117    106     94     92     94     95     94
144.000     88     81     82     86     87     86     81     81    108    137
144.200    119     87     72     67     82    101    103     96     71     45
144.400     50     68     86    105    129    149    134    111    113    120
144.600    100     74     65     66     80     98    103    103    108    110
144.800     90     70     90    121    124    119    129    141    133    116
145.000     95     75     64     59     70     87     94     96     86     71
145.200     46     26     43     70     77     75     75     77     94    109
145.400     91     65     72     89     89     82     65     49     53     65
145.600     75     85     94    101    103    101     94     86     86     87
145.800     70     53     71     96     89     73     79     92     98    102
146.000    104    106    107    105     93     80     82     88     87     84
146.200     86     85     59     34     64    107    102     83     89    102
146.400    101     95     89     85     91     95     69     39     44     61
146.600     65     66     85    106    101     87     88     93     91     89
146.800     95    102     94     82     80     83     90     93     71     45
147.000     52     70     78     82     86     90     91     90     89     85
147.200     74     64     71     85     97    106    102     93     91     93
147.400    105    116    102     80     68     61     59     59     60     64
147.600     77     88     74     56     68     88     89     84     81     78
147.800     73     69     72     78     87     93     79     60     55     56
148.000     67     82    105    124    105     79     96    124    117    103
148.200    119    140    128    102     74     53     65     86     79     65
148.400     74     91    100    103     93     81     92    106     88     63
148.600     60     66     70     71     55     38     46     63     72     78
148.800     84     89     89     87     87     84     66     49     67     92
149.000     87     74     86    106    119    123     94     58     50     56
149.200     72     92    114    129    112     84     66     56     66     83
149.400     92     96     93     86     71     61     89    124    112     85
149.600     70     64     80     98     89     75     93    113     81     41
149.800     59     96    105    103    103     99     75     49     58     76
150.000     77     71     62     57     75     98     94     84     91    103
150.200    107    105     93     84    111    144    127     95     83     77
150.400     58     39     46     66     91    112     98     76     81     97
150.600    114    125    100     67     69     82     81     79     92    109
150.800    108    101    102     99     58     13     26     62     98    127
151.000    121    103     97     96    103    108     83     50     32     26
151.200     47     78    109    135    141    135    111     79     52     35
151.400     63    101    101     88     91    102    117    126    101     73
151.600     90    119    111     92     85     84     86     87     70     51
151.800     57     69     64     54     51     53     65     79     88     93
152.000     91     85     67     53     76    108    108     97     93     92
152.200     98    103     93     80     82     91    108    124    118    107
152.400    106    103     62     15     13     33     78    124    130    119
152.600    106     93     80     71     77     83     57     27     34     54
152.800     64     70     76     83     97    109    101     88     95    107
153.000    107    102     92     83     86     89     68     44     45     59
153.200     85    106     84     52     65     92    107    113     96     74
153.400     70     72     64     57     77     97     69     30     39     65
153.600     81     92     98     99     82     61     56     61     76     96
153.800    114    130    131    125    109     88     59     30     19     23
154.000     64    110    107     87     77     73     78     82     67     51
154.200     65     88     93     90     84     76     71     71     89    112
154.400    117    114    104     96    106    121    118    106     87     68
154.600     59     55     49     45     46     53     75    101    119    129
154.800    119    104    107    116    115    108     88     68     81    104
155.000    111    111    111    109    102     91     73     54     40     34
155.200     55     82     87     84     88     91     82     70     63     60
155.400     64     72     90    108    108    102    106    111    104     94
155.600     92     93     88     81     84     88     85     83    101    122
155.800    118    104     89     74     69     68     74     81     84     85
156.000     76     70     96    126    114     90     86     86     66     41
156.200     29     28     47     72     84     88     80     68     58     50
156.400     55     64     63     63     81    102     95     78     66     54
156.600     30     11     37     76     87     87     88     89     82     72
156.800     65     61     64     67     53     40     62     92     92     82
157.000     79     78     72     62     43     25     22     30     55     79
157.200     64     45     81    131    136    122     96     70     64     68
157.400     81     92     81     66     74     90     95     91     67     43
157.600     64     95     93     77     66     59     67     81     98    113
157.800    108     99    107    114     84     49     56     78     91    102
158.000    113    119     93     63     73     94     89     72     51     35
158.200     48     68     68     60     57     55     51     48     50     55
158.400     62     68     67     67     89    116    128    131    121    104
158.600     83     64     57     56     58     65     85    105     94     75
158.800     81     91     74     51     51     57     42     25     48     77
159.000     63     35     32     37     40     44     55     66     60     54
159.200     78    103     75     36     54     86     78     58     59     67
159.400     62     54     59     67     60     49     43     39     35     34
159.600     50     68     66     60     77     98     94     83     87     97
159.800    104    106     86     62     58     60     54     42     20      0
160.000     12     35     54     68     62     51     50     53     49     47
160.200     60     73     53     24     22     28     29     28     34     42
160.400     55     64     48     29     43     66     62     48     34     25
160.600     36     54     64     67     55     40     42     50     58     63
160.800     54     44     53     68     78     87    101    109     78     41
161.000     46     66     79     88     89     87     85     81     70     55
161.200     35     18     23     37     49     60     66     69     67     61
161.400     43     28     47     71     58     37     51     72     58     32
161.600     18     12     24     41     45     44     48     55     65     74
161.800     65     52     59     69     57     42     49     60     47     31
#.EOFm.                                                                      .
