#.DATE. 2018-06-23 13:04:43                                                  .
#.GTkV. 25                                                                   .
#.GCmA. 30                                                                   .
#.WLa1. 2.2907                                                              .
#.ANFG. 138                                                                  .
#.ENDE. 162                                                                  .
#.STEP. 0.02                                                                 .
#.t/St. 1                                                                 .
#.nScn. 2                                                             .
#.MaxI. 2921                                                .
#.    .                                                                      .
#.iScn. 1                                                .
#.STPi. 0.02                                                .
#.PSIi. 0                                                .
#.FETA. -1                                                                   .
138.000    260    246    244    246    246    250    271    292    279    260
138.200    271    293    307    315    315    313    324    335    319    292
138.400    260    239    282    336    320    285    295    319    324    320
138.600    303    289    317    352    342    323    354    393    379    347
138.800    338    339    342    343    329    308    283    263    273    295
139.000    312    326    330    332    341    348    333    322    373    436
139.200    439    420    414    409    376    341    351    375    382    381
139.400    372    364    377    397    402    397    367    337    355    391
139.600    417    430    398    359    370    403    438    465    447    416
139.800    415    424    426    422    396    369    372    385    381    380
140.000    423    477    506    522    530    532    527    515    481    451
140.200    478    522    539    541    520    492    472    460    465    480
140.400    513    541    511    467    476    507    540    569    576    578
140.600    600    626    632    629    621    618    647    681    673    652
140.800    648    656    692    734    748    751    759    765    751    728
141.000    702    685    728    786    807    816    837    858    854    849
141.200    887    941    985   1015    997    965    963    978   1021   1062
141.400   1033    988    995   1016   1005    999   1080   1185   1238   1269
141.600   1295   1302   1222   1137   1192   1305   1425   1527   1529   1496
141.800   1491   1500   1523   1543   1528   1507   1531   1579   1660   1735
142.000   1714   1688   1835   2014   2010   1940   1908   1912   2016   2140
142.200   2162   2147   2147   2201   2492   2811   2797   2665   2614   2600
142.400   2605   2611   2588   2569   2624   2709   2802   2888   2921   2917
142.600   2834   2734   2703   2714   2801   2884   2791   2657   2674   2741
142.800   2750   2746   2794   2858   2903   2917   2811   2673   2615   2594
143.000   2595   2614   2676   2744   2750   2706   2532   2352   2402   2533
143.200   2609   2631   2488   2307   2263   2267   2244   2215   2210   2195
143.400   2088   1976   2022   2119   2148   2141   2091   2026   1976   1935
143.600   1912   1890   1840   1788   1786   1800   1797   1775   1692   1594
143.800   1551   1523   1465   1406   1405   1425   1434   1426   1361   1291
144.000   1313   1350   1284   1192   1183   1202   1193   1194   1301   1415
144.200   1344   1219   1187   1187   1154   1104   1032    967    977   1009
144.400   1001    981    979    989   1016   1035    977    909    943    993
144.600    925    828    831    865    862    845    833    827    836    839
144.800    779    711    733    776    744    683    627    583    587    606
145.000    598    576    529    482    478    492    505    509    476    436
145.200    436    456    494    526    487    425    393    378    393    412
145.400    398    377    396    423    418    401    389    381    382    376
145.600    321    255    224    220    274    340    346    330    321    316
145.800    319    317    274    224    229    250    246    234    235    237
146.000    214    189    196    211    206    194    195    197    178    154
146.200    150    158    186    212    189    154    151    167    211    258
146.400    260    237    179    118    114    129    132    135    160    187
146.600    182    168    169    178    189    196    178    156    164    180
146.800    181    177    181    186    178    165    155    146    134    125
147.000    143    163    148    123    126    138    137    133    139    147
147.200    143    137    138    140    135    127    117    111    122    137
147.400    140    139    142    147    160    174    175    167    140    117
147.600    148    192    196    181    156    128    110    101    115    134
147.800    130    122    146    175    170    153    141    133    134    131
148.000     96     60     84    126    136    135    136    137    135    132
148.200    134    135    124    105     71     40     54     82     90     95
148.400    122    149    132    105    113    128    108     81     84     99
148.600    111    121    129    132    112     87     90    101     97     89
148.800     86     90    112    137    134    120    106     94     95    103
149.000    118    136    157    172    152    124    125    132    119    102
149.200    110    128    144    156    145    124    101     83     97    117
149.400    105     84     76     77     90    104    100     91     97    106
149.600    105     98     84     74     96    124    124    114    119    127
149.800    128    128    137    146    140    129    124    122    117    110
150.000    100     91     97    108    119    127    125    121    127    133
150.200    121    102     88     84    125    171    157    121     98     83
150.400     82     90    118    146    135    114    118    131    136    136
150.600    128    119    126    138    139    139    164    189    171    136
150.800    106     85    102    128    126    114    115    124    148    171
151.000    159    134    114    100    106    119    124    126    126    126
151.200    123    121    132    142    122     94     83     79     75     74
151.400     88    105    107    104    109    121    150    178    166    137
151.600    104     80    105    144    158    157    132    106    119    142
151.800    141    130    111     92     88     96    132    168    146    105
152.000     87     83     96    112    109    104    124    149    146    131
152.200    113     96     99    107    108    109    120    136    154    165
152.400    141    106     84     75    103    140    155    157    138    114
152.600    111    121    151    177    142     93    102    125    101     66
152.800     66     81    101    121    128    127    113     99    118    150
153.000    182    203    167    111     64     30     47     77     64     45
153.200     83    139    178    201    181    144    110     83     79     83
153.400     74     69    107    151    137    103     89     88    114    144
153.600    147    138    122    113    146    187    181    159    149    145
153.800    151    152    111     67     88    127    123     98     58     24
154.000     52     97    110    109    101     91     80     72     87    106
154.200     98     83     83     90    102    116    129    136    123    106
154.400    116    133    135    128    107     87     92    108    122    130
154.600    107     77     78     92    105    115    118    117    109    104
154.800    121    140    124     96     78     68     76     88     77     61
155.000     70     84     81     78    105    138    133    114    103     97
155.200     99    102     85     63     48     43     74    112    109     94
155.400    105    122    111     91     83     80     87     97    105    111
155.600    105     93     68     46     66     98    111    114    101     86
155.800     96    111    106     92     80     69     64     64     69     75
156.000     68     60     72     91    105    111     92     72    100    140
156.200    138    123    122    123    114    103    109    121    134    142
156.400    119     89     94    106     90     69     86    111     99     79
156.600     84    101    120    135    128    115    115    117     96     70
156.800     67     70     58     46     59     79     77     66     50     36
157.000     41     52     61     68     72     75     83     92     99    106
157.200    115    123    124    121    113    104    100     98     95     91
157.400     92     93     91     87     88     90     94     97     96     97
157.600    108    121    117    108     99     94    102    108     73     34
157.800     60    108    139    157    142    116    101     95    109    125
158.000    111     91     96    107     90     67     69     79     82     80
158.200     66     51     51     60     79     98     92     79     79     84
158.400     81     74     65     64    103    147    133    101    101    105
158.600     72     36     58     98    105     99     91     80     56     33
158.800     47     73     94    107     93     71     61     58     68     83
159.000     90     94     98    102    111    117    105     89     93    103
159.200    106    107    113    116     94     71     95    129    121    102
159.400    108    121    117    111    125    141    122     90     56     28
159.600     29     41     54     64     54     41     48     63     70     71
159.800     58     47     66     92     90     77     69     66     78     91
160.000     79     61     63     70     65     59     70     87    102    114
160.200    111    102     85     70     80     97     99     91     66     37
160.400     21     15     28     47     61     72     83     89     77     59
160.600     54     55     63     73     85     96    102    105    106    103
160.800     82     62     83    113     98     73     81     98     90     76
161.000     79     86     76     63     63     67     56     46     63     85
161.200     82     73     92    117    112     98     92     91     92     90
161.400     70     45     38     40     54     67     55     35     23     18
161.600     30     49     71     93    103    106     89     66     48     36
161.800     46     64     85    104    103     94     77     60     59     64
#.iScn. 2                                                .
#.STPi. 0.02                                                .
#.PSIi. 24                                                .
#.FETA. -1                                                                   .
138.000    148    142    131    124    139    156    138    110    107    117
138.200    145    171    145    104     85     80     98    124    142    153
138.400    147    133    106     80     84     98    103    109    134    155
138.600    124     79     69     76     98    119    105     81     77     83
138.800     99    114    101     82     88    103    114    122    115    109
139.000    133    158    125     79     83    106    124    132    103     69
139.200     83    112    116    112    117    122    113     99     84     71
139.400     76     87     93     99    117    131    107     74     77     95
139.600    110    120    113    102    101    104     99     89     72     58
139.800     76    100     96     86    111    143    148    135     87     39
140.000     56     95    107    109    106    104    112    124    133    137
140.200    121    101    102    113    129    141    123     98     93     98
140.400    108    116    104     85     73     70    102    140    136    121
140.600    133    150    144    131    133    137    121    100     99    104
140.800    107    113    138    164    161    149    144    143    145    148
141.000    146    144    149    150    119     82     78     94    135    177
141.200    171    144    114     89    100    124    138    147    150    149
141.400    143    133    114     97    105    119    113    103    110    120
141.600    108     91     87     90     97    105    114    125    136    142
141.800    118     90     99    118    117    106     90     81    115    158
142.000    153    131    124    120    108     96    109    123     99     67
142.200     76    101    116    121     89     53     64     95    133    165
142.400    157    132    103     78     75     87    132    178    159    122
142.600    122    130    111     90    114    149    148    133    123    115
142.800    110    109    121    134    121    103    118    143    153    154
143.000    142    125    113    104    103    108    123    139    137    125
143.200    106     88     87     91     85     82    117    158    154    133
143.400    117    104     96     88     67     45     43     58    116    175
143.600    149     99    101    118    112     96     83     75     84     98
143.800    107    114    128    136    109     73     67     77    107    137
144.000    129    111    126    151    159    156    123     83     65     60
144.200     82    109    116    118    138    158    136    102     85     75
144.400     65     58     66     79     85     88     83     74     63     55
144.600     65     83     96    109    124    135    124    108    112    124
144.800    133    138    131    120    116    111     94     77     84     94
145.000     77     56     68     91     94     88     74     60     66     83
145.200    117    149    146    128    110     93     79     73     97    126
145.400    122    103     81     59     50     49     65     84     86     80
145.600     62     46     57     80    106    127    113     88     76     77
145.800    113    151    124     81     83    100    102     96     77     59
146.000     76    100     97     86     90     97     84     69     81     99
146.200    100     96    102    110    108    104    107    108     86     62
146.400     83    116    126    123    110     98    118    140    117     81
146.600     73     78     86     95     98     98     98     99    110    123
146.800    134    143    144    138    112     81     67     64     91    122
147.000    121    107     90     77     91    113    130    139    123    101
147.200    101    106     99     90     93     98     93     83     76     74
147.400     92    116    130    138    136    126     96     67     83    109
147.600     94     67     68     82    104    125    120    105     98     96
147.800    106    115    101     77     58     50     92    145    155    145
148.000    125    101     80     67     91    122    121    108     99     90
148.200     79     73     97    126    118    102    113    128    106     72
148.400     48     33     40     55     65     72     79     86    101    116
148.600    116    112    118    124    109     89     92    104    113    120
148.800    125    125    107     84     78     78     79     82     87     95
149.000    113    129    118    103    123    148    123     86     86     99
149.200    109    115    111    102     93     88    111    135    106     67
149.400     81    112    120    120    130    137    112     82     92    109
149.600     80     44     69    114    133    135    112     82     75     79
149.800     88     96     86     72     81     97     98     90     60     30
150.000     39     65    101    130    109     73     65     68     66     66
150.200     86    110    114    109    101     92     91     95    109    123
150.400    117    107    117    130    113     92    104    127    130    126
150.600    124    122    120    114     90     63     64     76     85     91
150.800     87     81     86     93     84     71     73     79     76     73
151.000     82     93     91     81     66     55     79    109    101     81
151.200     84     95     98     97     96     97    111    127    125    117
151.400    119    121    105     82     67     60     80    105    103     91
151.600     77     65     63     66     73     76     54     30     46     72
151.800     68     60     95    136    119     84     79     84     86     83
152.000     68     55     79    113    129    132    111     87     93    109
152.200    110    109    121    136    131    120    114    110    108    105
152.400     97     90     98    107     93     75     92    115    105     86
152.600     92    104    101     91     84     78     71     69    102    142
152.800    154    153    148    143    140    135    118     98     88     83
153.000     78     77     88    101     99     90     76     66     89    120
153.200    123    117    122    129    118    101     92     93    126    158
153.400    118     61     61     83    108    126    101     66     69     84
153.600     84     81     88     99    107    112    112    108     94     77
153.800     65     59     75     96    102    104    117    129    108     80
154.000     80     88     74     58     71     95    122    141    117     83
154.200     87    105    115    119    113    106    114    123    105     82
154.400     81     88     90     89     86     84     92    102    104    101
154.600     95     86     75     70    102    139    131    106     86     76
154.800    104    137    117     82     85     99     90     82    124    173
155.000    159    120     91     68     60     59     66     73     60     45
155.200     53     72     96    118    119    113    120    129    121    104
155.400     72     42     51     72     83     88     91     92     88     81
155.600     69     60     71     88     87     78     65     59     92    132
155.800    132    118    119    122    113    100     91     86     96    111
156.000    121    127    124    120    126    134    129    120    118    120
156.200    132    143    130    108     85     68     89    118    109     87
156.400     80     83    113    140    107     58     52     61     55     47
156.600     56     68     63     53     53     58     70     78     54     26
156.800     35     57     74     90    114    133    104     63     58     68
157.000     75     78     69     58     57     61     63     65     64     63
157.200     70     80     87     93     97    101    102    101     96     91
157.400     86     82     80     80     92    104     96     83     85     90
157.600     83     72     68     67     73     80     85     87     77     66
157.800     67     70     56     41     53     70     62     51     75    110
158.000    130    138    114     82     68     64     65     70     77     82
158.200     73     62     61     65     67     70     73     77     83     89
158.400     98    105     96     88    120    154    123     72     58     60
158.600     73     91    109    124    119    108    100     96    101    107
158.800    106    105    121    136    116     84     65     52     44     43
159.000     67     94     83     59     43     39     75    114     88     49
159.200     72    111    106     86     73     66     72     80     65     44
159.400     38     40     57     78     92    100     90     70     43     21
159.600     34     58     62     61     77     93     79     60     74     96
159.800     85     64     58     58     63     71     92    115    118    113
160.000    101     89     82     80     90    100     92     78     79     79
160.200     51     16      7     15     48     84     77     56     50     49
160.400     46     45     57     71     62     50     66     90     91     84
160.600     82     84    101    118    112     98     95     95     80     63
160.800     61     65     71     75     72     68     74     79     59     38
161.000     61     96    106    103     90     71     45     20     12     13
161.200     32     54     55     47     39     33     42     53     51     47
161.400     64     82     55     21     35     71    116    149    110     53
161.600     48     62     66     68     85    103    101     87     53     20
161.800     30     56     69     74     67     59     73     90     85     73
#.EOFm.                                                                      .
