#.DATE. 2018-06-23 13:14:52                                                  .
#.GTkV. 25                                                                   .
#.GCmA. 30                                                                   .
#.WLa1. 2.2907                                                              .
#.ANFG. 138                                                                  .
#.ENDE. 162                                                                  .
#.STEP. 0.02                                                                 .
#.t/St. 1                                                                 .
#.nScn. 2                                                             .
#.MaxI. 1123                                                .
#.    .                                                                      .
#.iScn. 1                                                .
#.STPi. 0.02                                                .
#.PSIi. 0                                                .
#.FETA. -1                                                                   .
138.000    637    675    634    570    543    535    550    576    611    635
138.200    592    539    568    624    651    663    652    633    621    619
138.400    657    706    733    752    773    782    727    670    728    814
138.600    810    779    790    803    743    671    690    743    778    805
138.800    825    835    807    773    787    812    790    763    798    845
139.000    830    790    747    720    780    860    875    862    846    828
139.200    815    805    805    817    867    924    934    928    929    934
139.400    944    959    987   1012    994    969   1001   1053   1098   1123
139.600   1061    985   1008   1046    967    860    850    876    895    912
139.800    934    955    961    960    954    957   1014   1076   1061   1022
140.000   1016   1022   1015   1004   1001    994    947    892    872    879
140.200    951   1028   1000    944    955    985    976    952    927    912
140.400    953   1001    964    903    884    878    855    833    848    877
140.600    906    921    874    817    835    880    907    922    914    897
140.800    885    875    866    867    912    965    973    955    900    842
141.000    841    855    830    802    834    875    838    786    817    877
141.200    916    934    893    840    837    841    777    707    749    822
141.400    831    809    754    693    669    666    701    750    792    820
141.600    785    723    653    600    653    739    774    776    718    650
141.800    655    690    727    760    773    766    702    623    579    557
142.000    575    606    620    628    635    644    673    702    694    671
142.200    643    615    597    592    630    675    662    629    613    599
142.400    568    534    522    531    608    690    657    592    590    610
142.600    609    602    611    625    624    611    565    518    534    571
142.800    580    577    572    567    564    557    526    492    487    488
143.000    465    447    499    567    574    546    473    398    406    450
143.200    502    541    495    427    419    434    443    448    453    451
143.400    421    386    386    399    412    423    432    438    434    422
143.600    390    357    354    366    385    403    401    395    410    429
143.800    418    399    393    391    378    359    335    308    281    261
144.000    283    318    343    352    304    254    302    377    382    363
144.200    356    357    376    402    425    435    390    330    310    303
144.400    279    257    277    304    288    264    290    323    291    247
144.600    278    326    314    287    308    339    325    297    284    279
144.800    276    276    286    301    321    336    321    297    293    294
145.000    282    267    270    277    271    266    298    333    314    276
145.200    243    226    271    319    260    176    182    225    271    311
145.400    306    290    304    320    284    234    214    213    242    280
145.600    298    310    329    343    317    273    222    182    212    267
145.800    305    324    277    220    253    302    254    181    175    193
146.000    204    216    245    270    240    191    160    142    153    175
146.200    202    225    223    215    225    240    242    237    227    213
146.400    189    168    184    211    223    225    208    193    218    253
146.600    253    237    208    180    183    198    208    214    207    197
146.800    200    207    206    202    200    194    173    156    197    250
147.000    245    220    210    202    177    150    147    155    174    193
147.200    184    169    179    202    242    274    236    182    191    218
147.400    207    185    188    196    186    177    218    268    271    258
147.600    260    265    252    231    208    185    162    148    174    208
147.800    202    192    240    301    302    278    241    208    221    247
148.000    243    223    180    137    137    154    168    180    190    193
148.200    159    127    174    241    256    246    218    184    158    139
148.400    137    141    147    155    176    195    179    158    179    212
148.600    220    219    226    229    195    162    201    258    260    242
148.800    236    227    188    151    189    248    264    259    244    227
149.000    225    230    240    248    236    218    210    208    214    227
149.200    252    271    240    195    185    187    182    172    149    132
149.400    172    224    231    220    217    216    209    199    189    177
149.600    160    138    108     82     97    127    142    158    201    245
149.800    240    217    199    184    171    161    159    159    147    137
150.000    154    181    201    213    195    165    133    116    171    240
150.200    236    205    194    187    167    146    153    166    156    140
150.400    146    159    167    168    145    119    122    138    169    201
150.600    213    215    207    199    213    225    192    148    142    156
150.800    188    221    214    193    175    155    115     78     91    123
151.000    145    160    158    155    174    191    155    103     81     79
151.200    122    174    184    175    153    134    162    197    180    153
151.400    183    224    210    176    154    148    203    263    223    156
151.600    153    170    163    148    137    128    125    132    173    214
151.800    190    152    175    213    201    176    183    195    167    130
152.000    128    139    145    148    146    138    108     76     74     87
152.200    115    149    181    208    210    206    221    237    224    195
152.400    141     90    104    137    130    114    128    150    150    142
152.600    133    122    106     93    105    126    143    159    170    180
152.800    187    192    195    189    141     89     96    125    150    170
153.000    165    156    170    188    173    151    157    170    155    133
153.200    136    145    139    130    138    151    159    166    178    192
153.400    207    217    192    157    135    121    114    115    141    171
153.600    169    158    160    163    141    115    118    130    137    138
153.800    126    115    140    181    222    248    192    116     99    105
154.000    111    110     75     43     86    150    164    158    149    137
154.200    120    105    118    136    124    103     97     98    103    107
154.400    106    104    112    121    115    107    119    138    154    166
154.600    173    173    151    128    140    164    176    181    166    143
154.800    117     91     75     71    109    149    120     77     96    132
155.000    130    122    164    209    170    114    138    184    175    150
155.200    152    159    143    126    154    188    163    123    120    132
155.400    142    149    139    120     81     46     68    106    117    123
155.600    156    194    200    192    174    156    156    163    165    168
155.800    183    202    218    223    186    136    104     83     76     79
156.000    108    138    117     87    122    177    205    217    196    161
156.200    126     93     78     78    118    165    167    153    144    137
156.400    123    108     95     89    113    141    132    116    139    167
156.600    146    116    131    155    131     93     83     88    110    131
156.800    115     93    108    135    148    145     84     15     24     59
157.000     64     62     82    102     85     62     79    107    105     90
157.200     72     57     69     89     99    106    121    139    154    161
157.400    136    100     72     54     61     79     95    110    120    128
157.600    135    138    127    114    115    118    107     93     89     93
157.800    117    144    146    138    125    115    125    137    121    100
158.000    117    141    125    101    116    138    123    100    114    134
158.200    112     84    104    142    165    178    168    150    144    142
158.400    145    145    127    103     89     81     83     94    131    170
158.600    159    133    129    131    123    112    108    103     88     76
158.800    104    143    157    162    170    177    166    150    149    149
159.000    129    103     87     85    136    195    184    147    115     88
159.200     76     74     92    113    111    103    117    133    122    104
159.400    106    118    137    153    142    123    119    120    114    110
159.600    121    135    126    111    114    117     85     50     70    105
159.800    102     91    120    155    145    118     94     72     52     39
160.000     63     96    109    112    113    116    134    148    111     60
160.200     45     54    103    159    162    146    141    135     98     58
160.400     68    102    157    207    186    139    110     87     57     35
160.600     60     97     99     94    122    157    154    135    116     99
160.800     99    102     93     85    109    134    102     56     48     55
161.000     52     49     58     69     65     61     92    125    106     79
161.200    116    166    157    124     81     50     96    159    160    140
161.400    140    142    111     70     47     33     26     23     27     32
161.600     37     39     31     25     51     82     78     65     78     96
161.800     84     67     80    104    115    123    144    163    147    125
#.iScn. 2                                                .
#.STPi. 0.02                                                .
#.PSIi. 24                                                .
#.FETA. -1                                                                   .
138.000     90    127    121    100     94     92     82     73     89    111
138.200    114    111    113    115    107     94     76     62     73     92
138.400     94     91     93     95     84     68     54     45     61     80
138.600     69     53     80    115    105     84     93    108     88     60
138.800     64     74     57     35     40     54     58     60     72     82
139.000     64     42     60     89     96     91     71     50     54     67
139.200     72     74     79     87    103    117    100     78    101    132
139.400    116     85     71     68     92    117     97     65     66     80
139.600     92    101     92     80     91    106     95     78     91    109
139.800     97     79     94    116    107     89     94    101     73     38
140.000     38     49     47     41     48     58     58     54     45     39
140.200     51     69     74     74     74     74     72     72     79     91
140.400    116    140    132    111     85     64     73     94    110    118
140.600     98     69     58     58     77     97     87     66     53     45
140.800     49     56     56     57     71     88     85     75     65     59
141.000     71     88     87     80     80     79     68     59     87    119
141.200    101     71     86    109     87     55     65     84     73     55
141.400     65     82     72     54     45     41     48     62     81    100
141.600    102     99     98     98     96     93     85     75     63     57
141.800     78    103     95     75     68     66     66     67     75     80
142.000     65     46     55     73     78     76     66     52     38     28
142.200     38     53     54     51     53     57     58     61     77     98
142.400    116    129    125    113     89     68     77     98    112    120
142.600    103     82     83     92     99    103     94     78     55     33
142.800     31     41     71    103    102     93    112    134    114     84
143.000     83     93    108    117     89     57     72     98     87     63
143.200     47     39     51     74    111    142    123     87     69     60
143.400     54     53     62     74     78     79     85     93    103    110
143.600    102     86     65     46     54     72     90    102     89     67
143.800     57     50     38     28     39     57     62     61     58     54
144.000     50     49     60     73     73     71     89    105     71     27
144.200     36     63     73     76     71     62     48     37     49     67
144.400     67     60     60     62     64     66     69     74     81     86
144.600     79     72     87    106    103     88     53     23     53     98
144.800     96     81     90    103     91     70     55     46     49     56
145.000     56     55     57     64     83    103    101     91     83     75
145.200     69     67     90    118    126    120     86     47     44     54
145.400     49     42     48     62     81    100    101     96     97     98
145.600     81     59     49     47     65     88     97    100     97     91
145.800     88     83     65     48     64     89     87     78     79     84
146.000     86     86     84     84     91     96     77     55     58     69
146.200     63     56     74     96     87     68     67     71     67     58
146.400     44     32     40     55     67     76     80     80     71     62
146.600     63     67     59     50     56     69     82     90     70     43
146.800     41     49     57     63     61     60     85    112     94     64
147.000     64     78    102    125    122    109    104    103    109    116
147.200    118    115     97     74     56     47     71    102    100     91
147.400    115    143    118     78     71     78     88     95     76     52
147.600     59     75     71     62     65     71     65     57     59     64
147.800     66     63     48     33     42     62     92    116     90     54
148.000     71    100     82     53     59     80    106    127    112     83
148.200     64     51     56     66     66     65     74     84     76     64
148.400     72     82     64     39     44     58     60     61     75     89
148.600     70     44     50     67     80     88     75     55     48     50
148.800     72     97     99     88     64     41     54     82    105    123
149.000    121    113    112    110     88     61     50     46     39     32
149.200     33     39     50     64     80     93     89     85    108    134
149.400    125    105    108    119    125    124     98     69     72     85
149.600     86     81     70     59     64     71     53     31     34     46
149.800     48     48     58     68     60     50     68     93     90     77
150.000     72     69     59     48     37     33     59     93    109    112
150.200     88     63     83    113    105     80     53     33     52     80
150.400     83     79     93    112    113    107    104     99     76     49
150.600     40     42     61     80     67     50     78    113     95     61
150.800     57     65     71     76     76     73     67     61     63     68
151.000     66     60     43     26     34     53     80    103     88     60
151.200     47     41     43     47     41     36     54     78     77     70
151.400     80     91     79     58     43     37     58     84     83     72
151.600     66     61     50     36     27     22     34     48     45     38
151.800     43     50     42     31     35     43     46     51     81    113
152.000    107     85     63     42     31     26     36     53     77     99
152.200    104    103    107    108     82     50     35     31     45     65
152.400     72     75     86     93     65     29     25     36     62     88
152.600     87     77     72     65     33      4     38     89     94     82
152.800     83     86     74     58     52     50     46     43     42     46
153.000     70     97     99     92     92     92     85     77     76     75
153.200     59     42     53     72     78     78     78     80     94    106
153.400     89     69     86    109     89     55     44     45     63     82
153.600     79     68     62     57     47     38     41     48     50     49
153.800     43     36     32     31     32     37     60     87     99    102
154.000     92     76     58     44     50     63     69     73     77     78
154.200     64     51     72     97     77     46     55     71     50     24
154.400     47     82     87     76     52     26     21     25     26     28
154.600     43     62     71     72     45     13     11     21     31     41
154.800     54     66     66     64     69     73     60     43     40     42
155.000     49     55     54     53     66     80     79     73     77     82
155.200     75     67     79     94     84     67     65     68     65     60
155.400     60     60     51     42     43     51     71     87     63     29
155.600     27     38     55     68     45     16     32     58     45     24
155.800     38     64     75     79     70     57     50     46     37     31
156.000     45     65     77     82     72     60     68     81     79     69
156.200     49     29     29     38     50     64     78     84     50      8
156.400      6     19     29     35     34     34     51     74     95    110
156.600    100     80     60     45     54     66     51     30     32     41
156.800     34     26     53     86     84     68     52     36     18      6
157.000     26     52     46     32     36     46     46     45     54     64
157.200     52     37     46     62     71     80    101    123    128    119
157.400     73     23     18     31     37     40     35     28     24     25
157.600     39     55     46     33     45     66     80     87     66     44
157.800     74    115    112     91     60     36     59     88     57     10
158.000      6     22     46     71     81     86     95    101     87     68
158.200     65     71     87    101     82     57     67     87     87     80
158.400     78     79     88     93     60     19     15     26     42     53
158.600     30      2      9     29     41     48     52     54     61     66
158.800     59     52     67     88     96     93     65     32     24     27
159.000     40     54     60     61     60     57     49     42     50     62
159.200     62     59     58     57     53     52     77    101     60      6
159.400      9     34     57     73     61     39     25     20     38     61
159.600     59     51     63     78     63     42     46     57     55     48
159.800     48     50     52     53     49     47     65     86     82     67
160.000     52     41     58     84     97     99     71     38     40     55
160.200     67     73     64     51     56     66     65     57     39     23
160.400     42     67     59     42     53     72     73     67     61     57
160.600     63     71     70     62     33      1      4     19     27     37
160.800     64     90     81     59     45     37     36     38     41     43
161.000     34     24     34     50     57     58     44     28     32     42
161.200     37     30     35     44     51     52     28      3     25     58
161.400     54     43     69     99     77     39     23     16     14     15
161.600     19     25     31     35     31     27     41     61     73     75
161.800     49     19     34     59     47     27     35     56     79     96
#.EOFm.                                                                      .
