#.DATE. 2018-06-23 13:09:19                                                  .
#.GTkV. 25                                                                   .
#.GCmA. 30                                                                   .
#.WLa1. 2.2907                                                              .
#.ANFG. 138                                                                  .
#.ENDE. 162                                                                  .
#.STEP. 0.02                                                                 .
#.t/St. 1                                                                 .
#.nScn. 2                                                             .
#.MaxI. 188                                                .
#.    .                                                                      .
#.iScn. 1                                                .
#.STPi. 0.02                                                .
#.PSIi. 0                                                .
#.FETA. -1                                                                   .
138.000    131     84     80     92     89     80     63     45     42     49
138.200     83    115     88     45     37     48     84    122    119    100
138.400     87     80     85     90     68     42     44     57     64     67
138.600     70     73     79     87     93     96     83     66     65     69
138.800     58     47     61     82     88     88     90     93     99    105
139.000    103     94     73     54     70     98    116    124    101     70
139.200     69     79     91     99     88     70     52     40     57     81
139.400     90     90     80     70     82     97     88     73     68     68
139.600     68     71     86    105    120    130    120    103     91     88
139.800    117    147    120     79     82    100    111    119    124    126
140.000    119    108     87     71     92    122    123    112     95     80
140.200     93    111     96     71     66     67     66     66     71     75
140.400     59     40     46     64     89    111    104     89     84     82
140.600     68     57     80    107     90     70    115    176    184    169
140.800    149    129    117    108     92     79     90    104     93     78
141.000    101    128     99     54     47     56     68     78     65     51
141.200     75    109    113    103     85     67     67     77     99    119
141.400    109     96    130    169    146    105     99    109    131    150
141.600    134    109    107    116    127    135    124    108     97     91
141.800     97    107    119    126    113     92     78     70     82    101
142.000    120    138    158    170    145    109     93     89    103    122
142.200    125    118     97     76     75     82     86     94    130    172
142.400    184    178    142    107    135    177    156    117    111    118
142.600    117    116    131    151    156    155    151    147    155    162
142.800    147    127    127    131    113     94    110    131    106     70
143.000     79    107    143    174    160    128     94     72    105    155
143.200    173    176    159    143    164    188    155    110    117    138
143.400    129    107     85     67     72     87    104    118    114    106
143.600    121    140    134    118    104     91     86     84     81     79
143.800     88     99     94     85     91     99     90     83    118    159
144.000    146    121    138    162    134     94     91    102    113    124
144.200    138    141     79     11     40     99    113    111    119    123
144.400     92     54     58     77     92    104    105    103    111    119
144.600    110     96     89     86     89     94     93     90     92     96
144.800    101    106    106    105    108    112    121    127    116    103
145.000    115    131    114     89     87     94     93     89     86     85
145.200     86     87     81     78     98    122    115    100    110    124
145.400    108     87    102    128    133    124     93     63     85    118
145.600    108     91    130    176    141     84     87    108    104     90
145.800     78     67     62     59     50     40     43     51     59     66
146.000     66     66     76     89     97    102     97     87     69     51
146.200     53     65     89    111    108     93     71     49     39     36
146.400     50     69     86     98     92     77     59     46     71    104
146.600     99     77     46     21     40     76    117    148    122     80
146.800     65     61     62     66     78     91     89     82     80     81
147.000     87     97    117    134    118     91     82     82     89     96
147.200     88     78     86     99     95     88     96    107     98     86
147.400     94    106     96     82     83     87     68     50     83    126
147.600    113     84     90    103     82     56     65     88    104    114
147.800    101     83     83     86     64     39     47     71    104    134
148.000    134    118     83     49     50     68     98    122     94     56
148.200     66     91     86     74     82     92     74     51     66     91
148.400     88     75     70     72     94    119    116     99     70     47
148.600     74    114    111     93     86     88    109    126     91     48
148.800     67    103    100     85     82     82     72     62     74     88
149.000     77     58     52     56     80    109    120    123    126    124
149.200    104     83    102    126     98     61     77    109    110     97
149.400     84     72     68     70     79     86     69     50     66     92
149.600     98     98    103    109    102     89     76     66     76     93
149.800    108    117     98     73     76     91    110    125    116     97
150.000     73     56     84    123    122    106     87     70     73     79
150.200     67     51     58     72     74     75     90    108    121    127
150.400    113     96    102    114    106     93     92    100    129    159
150.600    144    111     70     33     32     50     83    114    100     72
150.800     66     68     70     71     69     67     78     89     73     54
151.000     70     92     74     46     45     57     77     97     95     88
151.200     91     96     84     70     75     87    102    117    124    123
151.400    100     74     78     89     72     50     59     79     84     86
151.600     98    111    107     99     98     98     88     79     97    119
151.800    114     98     80     67     74     91    111    128    115     95
152.000     95    104    115    124    119    112    119    126    108     85
152.200     87     98    107    110     86     56     45     44     63     88
152.400    110    124    113     93     83     73     45     17     32     59
152.600     61     54     50     51     62     71     45     15     35     68
152.800     63     47     52     67     86    100     89     72     80     95
153.000     97     94     99    105     99     94    111    132    126    109
153.200     84     61     66     80     81     78     83     89     85     76
153.400     64     52     52     60     88    116    107     88     96    107
153.600     85     51     30     15      3      1     34     75     78     73
153.800    103    138    128    103     93     88     79     75     96    119
154.000     97     63     59     66     68     71     91    112    108     95
154.200     89     83     72     63     77     95     85     65     55     55
154.400     85    118    104     74     51     32     21     14     12     19
154.600     61    106     96     67     51     43     42     44     46     48
154.800     52     56     65     72     66     55     54     59     82    108
155.000    111    106    106    103     75     45     53     72     66     53
155.200     52     57     72     85     76     61     58     63     85    106
155.400     93     70     62     60     55     50     52     57     70     84
155.600     85     80     73     70     92    115     93     59     52     56
155.800     63     68     58     46     56     70     64     53     57     65
156.000     61     55     57     61     55     50     67     87     80     68
156.200     83    101     81     49     42     47     70     92     74     45
156.400     40     47     70     96     99     91     73     54     48     51
156.600     67     85     78     65     67     75     83     87     68     43
156.800     33     32     47     64     55     41     57     78     67     47
157.000     44     50     67     87     92     92     90     86     71     57
157.200     76    101     93     74     73     77     70     61     67     79
157.400     92     98     59     14     24     52     58     61     88    118
157.600    119    108     87     64     48     35     25     20     27     41
157.800     65     87     82     67     55     49     58     74     87     98
158.000    109    110     66     15     22     48     51     49     70     94
158.200     83     63     63     69     62     53     60     71     66     57
158.400     66     78     70     57     56     57     48     35     30     31
158.600     44     60     66     67     61     54     49     46     49     53
158.800     44     35     49     72     87     96     93     83     60     40
159.000     63     93     71     34     22     21     25     33     48     61
159.200     49     31     33     39     27     13     29     54     67     73
159.400     69     61     50     42     59     80     74     65     88    118
159.600    121    111     93     74     72     78     94    106     83     47
159.800     24     11     18     31     29     24     32     42     32     20
160.000     38     65     72     73     81     90     92     92     90     91
160.200    106    116     77     29     28     45     60     70     60     49
160.400     68     93     85     63     43     27     31     44     67     86
160.600     73     49     34     27     50     74     51     15      8     12
160.800     17     25     42     58     54     47     65     88     86     70
161.000     34      0     14     43     45     43     69     96     63     17
161.200     21     41     38     27     22     25     48     73     63     44
161.400     52     66     60     47     42     38     19      1     11     33
161.600     54     70     67     59     58     61     67     74     78     77
161.800     61     41     29     22     20     20     18     22     53     83
#.iScn. 2                                                .
#.STPi. 0.02                                                .
#.PSIi. 24                                                .
#.FETA. -1                                                                   .
138.000    147    147    132    116    130    152    154    147    135    122
138.200    117    111     82     51     57     76     90    100    100     97
138.400    104    113    120    123    108     92    106    125    107     79
138.600     68     65     67     71     75     80     93    103     83     58
138.800     70     95    115    125     98     67     91    129    126    108
139.000    105    105     97     90    108    131    132    123    106     90
139.200     97    108     91     65     52     49     73    102    104     99
139.400    109    123    127    125    111     94     81     70     69     73
139.600     90    110    117    117    110     99     78     59     63     77
139.800     88    101    132    163    156    138    140    147    141    130
140.000    124    121    128    135    130    118     91     66     73     90
140.200     97     99    104    111    118    123    115    103    101    103
140.400    103    100     79     60     89    124     91     45     70    114
140.600    103     75     69     73     89    105    104     97     93     90
140.800     81     75    104    137    127    100     79     67     84    111
141.000    134    149    126     93     87     92    107    121    117    104
141.200     86     74    105    141    117     80     96    129    136    127
141.400     94     65    100    148    137    111    120    136    109     71
141.600     66     76     96    114    102     83     91    110    132    151
141.800    145    129    111     97    100    108    104     98    104    115
142.000    131    145    141    128    111     94     79     66     60     65
142.200    118    175    159    120    118    128    128    118     78     39
142.400     70    116    102     75    105    153    186    199    147     84
142.600     99    140    153    152    136    120    137    158    133     97
142.800    104    126    136    143    155    163    136    100     82     76
143.000     89    107    115    118    117    117    122    131    145    158
143.200    156    144    112     78     72     78     79     77     62     53
143.400    100    157    149    118     99     89     99    113    109     99
143.600    104    114    122    129    133    134    128    124    142    161
143.800    143    113     93     83    100    123    124    115    103     92
144.000     99    111    110    109    133    157    131     91     79     80
144.200     88     97    103    106    107    107    105    107    126    149
144.400    155    155    152    147    137    128    134    140    121     96
144.600     98    105     92     73     72     81    104    125    114     95
144.800     98    108    109    105     90     75     85    100     91     76
145.000     75     76     65     52     54     64     81     96     91     80
145.200     86     99    117    132    125    114    130    149    131    105
145.400    106    116    116    109     88     69     85    109    100     80
145.600     70     64     58     56     74     95     91     81     94    114
145.800    124    127    115    101    104    110     99     84     79     79
146.000     76     72     68     63     56     53     77    106    113    112
146.200    113    112     98     84    101    127    133    130    121    110
146.400    109    111    115    115     96     75     79     93    107    117
146.600    104     84     76     74     87    100     86     70     92    124
146.800    126    117    110    107    117    127    105     77     78     86
147.000     74     60     76     97     84     60     46     41     61     91
147.200    118    136    112     79     83     95     79     60     87    127
147.400    134    126    108     87     73     64     70     81     90     97
147.600     99     98     92     82     60     40     50     71     87     98
147.800     93     83     83     89    108    130    142    148    146    142
148.000    146    148    118     84     90    108    106    102    125    149
148.200    125     87     82     93    119    143    124     95    101    118
148.400    121    119    117    115    113    110     99     85     74     65
148.600     60     59     76    101    133    156    127     85     83     98
148.800    117    133    134    126    110     95    105    117     92     61
149.000     72     93     84     66     66     78    107    137    138    126
149.200    103     79     76     83     95    104     88     66     64     72
149.400     85     98     93     82     81     83     87     90     89     87
149.600     82     78     86     92     69     45     70    107    110    104
149.800    113    124    112     95    105    125    145    156    122     76
150.000     61     64     92    124    121    106     94     85     81     81
150.200     88     98    110    119    114    109    128    145    107     58
150.400     67     93     91     79     80     85     85     87    106    130
150.600    142    143    111     73     77     93     92     84     76     69
150.800     69     74     94    116    121    118    109     99    104    108
151.000     84     57     75    104    101     88     90     97     99     97
151.200     87     74     68     63     53     48     81    118    102     73
151.400     89    117    115    101     85     74     90    110    103     90
151.600     97    110    110    103     89     74     61     53     66     85
151.800     88     84     85     88     99    112    117    117    110    101
152.000     94     92    113    136    123     94     63     41     67    105
152.200    100     80     73     77    108    142    138    122    129    142
152.400    137    123    104     88    102    123    117    105    110    116
152.600     93     65     66     78     95    110    108    102    104    106
152.800     88     72    103    145    147    134    126    121    123    129
153.000    150    170    162    142    122    105    106    109     89     68
153.200     92    122     95     53     48     60     85    111    112    108
153.400    122    139    126    105     99     98     94     86     70     56
153.600     75    103    111    112    120    125    103     76     76     84
153.800     84     83    100    120    120    111     99     90    104    122
154.000    107     85     93    106     85     61     86    125    142    145
154.200    120     89     83     87     91     94     97     96     80     61
154.400     59     68    103    142    143    128    110     95    106    123
154.600    114     99    109    123    108     89    102    120    100     69
154.800     63     72    109    145    119     73     47     38     71    109
155.000     89     52     53     72    108    141    127    101    102    107
155.200     82     53     69     98    104    101    103    107    112    117
155.400    114    108    104    100     99     98     89     78     77     78
155.600     76     73     78     87    103    119    123    119     97     72
155.800     72     81     85     87     87     88     91     97    113    127
156.000    112     91     90    101    129    154    136    105    100    103
156.200     91     80     99    127    133    133    138    139    107     69
156.400     73     90     92     90    101    115    119    119    119    123
156.600    147    170    150    112     76     48     61     89    104    110
156.800     94     75     79     93    104    110     99     83     74     70
157.000     79     93    104    110     98     80     77     81     98    117
157.200    120    114    101     90    106    126    114     91     73     60
157.400     60     67     74     81     81     82     93    105     94     75
157.600     64     58     59     63     72     82     90     95     82     67
157.800     77     95    106    112    105     95     96     98     79     60
158.000     89    126    106     71     71     80     61     37     46     65
158.200     66     60     57     57     66     77     83     88     99    110
158.400    106     96     85     79    108    141    132    110    103    101
158.600     91     78     72     74    109    147    133    106    109    119
158.800     99     73     75     90    107    120    108     87     71     63
159.000     88    123    138    141    117     88     84     88     79     71
159.200     93    122    126    118     98     78     78     85     84     82
159.400     95    109    106     93     64     39     72    119    118     99
159.600     85     77     89    106    108    105    107    110    108    104
159.800    103    104    112    119    109     97    103    115    112    105
160.000    101    101    111    123    120    111     94     78     82     89
160.200     76     58     58     67     83     96     82     64     78    100
160.400    100     91     79     70     84    106    115    114     91     64
160.600     59     64     75     88     93     93     86     76     65     58
160.800     79    105     99     81     62     42     23     10     17     36
161.000     72    106    103     85     62     44     54     72     67     60
161.200     86    121    128    121    102     83     86     98    113    122
161.400     98     69     87    114     96     68     81    105     94     70
161.600     46     29     49     77     75     64     71     86    101    115
161.800    121    120    107     89     70     53     56     64     65     66
#.EOFm.                                                                      .
