#.DATE. 2018-06-23 13:08:40                                                  .
#.GTkV. 25                                                                   .
#.GCmA. 30                                                                   .
#.WLa1. 2.2907                                                              .
#.ANFG. 138                                                                  .
#.ENDE. 162                                                                  .
#.STEP. 0.02                                                                 .
#.t/St. 1                                                                 .
#.nScn. 2                                                             .
#.MaxI. 1100                                                .
#.    .                                                                      .
#.iScn. 1                                                .
#.STPi. 0.02                                                .
#.PSIi. 0                                                .
#.FETA. -1                                                                   .
138.000    573    556    557    571    615    664    675    669    653    636
138.200    635    644    663    681    667    645    638    644    682    724
138.400    726    714    710    712    722    731    714    691    694    705
138.600    696    688    718    756    749    728    720    717    704    695
138.800    719    756    785    813    851    880    842    792    812    851
139.000    845    830    857    897    922    935    926    909    894    873
139.200    817    773    861    977    978    943    961    995   1001    991
139.400    961    929    927    945   1005   1060   1015    946    964   1006
139.600    998    966    919    875    879    915   1008   1100   1072   1001
139.800    960    935    938    950    947    948    991   1042   1053   1050
140.000   1062   1077   1079   1063    987    900    881    900    971   1043
140.200   1018    969    997   1034    966    871    849    853    837    825
140.400    873    935    944    938    962    992    995    994   1028   1065
140.600   1044   1003    980    956    890    827    856    906    878    833
140.800    863    903    848    780    844    938    925    878    874    879
141.000    836    784    785    807    828    841    822    814    926   1050
141.200    996    890    882    905    885    850    832    820    808    795
141.400    780    764    750    733    703    684    755    837    802    733
141.600    726    729    659    578    597    653    699    732    718    681
141.800    616    551    541    556    589    627    653    669    655    628
142.000    591    568    630    709    701    661    626    606    646    699
142.200    695    668    636    610    621    650    697    734    681    599
142.400    549    525    569    637    685    708    644    559    536    536
142.600    526    519    549    584    577    552    524    505    541    580
142.800    526    446    429    448    520    596    581    536    526    523
143.000    488    451    467    493    454    402    410    434    415    386
143.200    397    425    461    498    517    526    521    513    514    512
143.400    485    452    442    441    435    429    430    428    401    367
143.600    355    354    369    389    396    397    391    383    375    362
143.800    322    284    301    336    348    350    352    360    396    432
144.000    406    359    324    298    294    299    310    319    302    286
144.200    333    387    353    296    304    331    323    305    309    321
144.400    336    349    349    342    328    313    301    293    290    289
144.600    285    276    250    229    265    314    316    305    319    334
144.800    304    265    271    295    319    334    304    264    262    279
145.000    306    334    340    341    352    361    335    297    269    253
145.200    274    303    300    286    282    277    249    218    222    247
145.400    309    366    328    259    226    210    199    195    208    230
145.600    267    300    288    262    259    264    264    262    257    249
145.800    229    206    188    176    184    199    209    217    223    221
146.000    179    137    170    224    230    222    246    276    277    268
146.200    261    249    210    169    173    196    223    249    265    269
146.400    234    196    217    254    259    251    240    232    244    258
146.600    242    218    217    225    235    243    244    241    232    224
146.800    241    253    193    121    127    163    184    200    213    223
147.000    223    214    185    156    172    199    193    178    189    205
147.200    186    157    145    146    182    226    238    234    212    189
147.400    201    222    216    204    214    230    238    243    258    270
147.600    252    221    185    159    196    245    228    192    201    222
147.800    216    206    228    252    226    191    209    249    291    321
148.000    293    240    187    144    156    185    191    189    197    200
148.200    163    128    188    267    254    213    212    229    253    270
148.400    240    198    184    180    165    154    193    237    213    171
148.600    179    204    215    213    170    126    165    223    209    175
148.800    176    191    203    212    218    221    220    213    178    147
149.000    193    251    224    161     95     45     90    165    208    227
149.200    188    133    116    120    151    186    186    177    193    215
149.400    217    214    228    239    205    161    158    170    172    173
149.600    188    203    193    176    177    185    191    194    179    163
149.800    175    195    195    187    179    167    132    101    135    193
150.000    241    271    234    179    166    167    154    140    146    154
150.200    127    102    149    214    229    218    185    145    110     91
150.400    135    192    183    152    146    156    197    239    218    174
150.600    143    123    128    145    164    178    167    154    189    226
150.800    177    107    110    141    164    177    155    129    153    185
151.000    158    118    127    153    169    179    184    185    181    180
151.200    206    229    187    126    101     94     97    109    143    180
151.400    195    201    202    197    169    142    170    205    165    111
151.600    135    181    175    147    106     68     68     86    112    141
151.800    160    173    168    158    158    160    157    153    157    164
152.000    166    164    152    134    104     80    106    149    177    192
152.200    171    144    167    198    177    143    149    173    202    219
152.400    161     89     94    120     99     68     82    112    129    141
152.600    154    165    160    154    181    214    214    202    198    193
152.800    165    128     96     80    134    201    196    165    146    136
153.000    148    162    147    126    127    138    156    172    168    155
153.200    137    126    160    200    181    146    146    156    146    137
153.400    168    202    163    109    130    173    179    171    163    155
153.600    147    144    168    194    178    147    123    110    142    179
153.800    153    113    133    165    142    106    120    145    128    100
154.000    101    113    125    139    164    187    175    151    132    120
154.200    126    134    111     85    114    155    149    128    119    116
154.400    121    129    135    143    161    178    169    155    172    191
154.600    150     97    101    123    123    111     81     51     63     84
154.800     75     60     80    111    129    142    161    176    155    126
155.000    135    158    178    191    181    161    144    134    152    178
155.200    184    183    184    181    155    129    156    193    175    137
155.400    111     97    125    158    139    106    108    125    144    158
155.600    143    122    126    139    142    145    165    180    142     87
155.800     57     46     85    133    131    112    106    109    129    153
156.000    169    176    158    133    126    122     98     75     94    120
156.200     99     68     82    114    146    171    161    137    115    103
156.400    141    183    143     82     76     96    133    161    114     52
156.600     70    113    119    111    101     88     55     26     49     88
156.800    103    112    133    153    145    124     98     79    106    147
157.000    163    167    158    146    144    142    118     90     82     85
157.200    101    125    156    174    114     39     49     87    100    102
157.400    106    105     80     53     58     75     87    101    133    164
157.600    150    123    118    123    134    151    182    206    175    129
157.800    121    128    130    132    142    157    177    197    202    203
158.000    207    212    207    195    165    135    148    172    166    149
158.200    136    123    110    101    115    134    126    112    117    130
158.400    148    161    140    111    104    108    122    134    119     97
158.600     94     96     91     93    143    198    173    126    122    136
158.800    145    152    152    150    145    136    112     84     66     58
159.000     83    118    138    141     88     24     25     49     61     70
159.200     82     92     79     70    124    186    160    106     92     92
159.400     82     73     89    112    123    128    127    122    112    102
159.600    103    110    119    131    156    178    157    126    132    151
159.800    168    180    172    157    144    133    127    122    113    100
160.000     72     49     80    121    112     91    117    148    117     67
160.200     49     48     70     98    108    110    115    124    145    160
160.400    123     72     51     49     79    117    133    140    140    133
160.600     98     60     65     86     97    103     99     89     69     50
160.800     54     68     77     83     77     72     87    107    109    104
161.000    106    110    119    127    123    116    116    115    101     86
161.200     97    117    126    130    134    136    128    116    107    102
161.400    110    120    109     89     72     57     45     41     66     96
161.600     99     93     95    103    121    135    108     73     88    118
161.800    126    123    105     83     69     63     74     91    101    108
#.iScn. 2                                                .
#.STPi. 0.02                                                .
#.PSIi. 24                                                .
#.FETA. -1                                                                   .
138.000    385    379    405    432    405    371    404    449    419    371
138.200    386    425    456    473    438    393    400    429    466    496
138.400    473    441    467    501    453    390    412    459    456    435
138.600    417    415    478    549    522    471    500    546    525    486
138.800    492    519    560    596    582    557    577    596    525    433
139.000    421    441    463    488    531    573    577    565    551    545
139.200    576    611    592    553    518    502    579    676    686    667
139.400    670    680    683    679    650    620    632    650    618    583
139.600    633    704    708    685    654    631    664    716    743    751
139.800    707    653    644    655    671    692    725    756    757    736
140.000    672    613    672    763    776    761    761    762    743    726
140.200    764    811    793    759    773    804    820    825    803    784
140.400    825    871    815    736    737    763    751    735    777    838
140.600    871    881    832    767    732    718    744    784    814    831
140.800    803    770    799    841    828    802    828    850    752    641
141.000    706    817    800    740    723    724    725    724    705    690
141.200    730    778    757    721    742    786    833    866    823    762
141.400    769    794    771    727    674    628    632    656    675    695
141.600    725    753    753    745    757    761    687    600    611    661
141.800    708    742    717    678    684    702    687    663    662    665
142.000    643    620    639    664    634    596    630    681    682    666
142.200    670    671    615    558    606    682    686    663    642    626
142.400    630    636    614    591    623    668    671    657    643    630
142.600    619    608    595    582    574    569    566    571    614    655
142.800    609    546    565    611    630    636    631    620    607    589
143.000    553    513    495    490    510    531    508    477    490    517
143.200    529    536    551    564    552    525    473    424    437    467
143.400    457    439    461    485    439    389    460    551    497    405
143.600    408    445    454    443    390    331    327    344    358    372
143.800    396    415    387    344    318    306    334    377    417    441
144.000    400    343    344    373    422    467    447    405    380    365
144.200    365    366    343    317    321    334    332    328    341    361
144.400    384    396    347    287    302    339    343    334    330    325
144.600    306    288    297    313    312    302    277    255    271    299
144.800    306    303    298    292    288    283    276    274    299    323
145.000    287    230    186    159    185    222    203    175    217    275
145.200    278    267    303    343    313    268    293    332    308    268
145.400    283    313    316    308    295    276    234    192    203    232
145.600    241    247    273    301    296    279    272    268    266    262
145.800    253    247    269    296    285    260    240    224    221    218
146.000    192    160    146    149    199    253    240    209    223    248
146.200    233    207    199    197    185    179    220    263    221    159
146.400    169    204    224    233    222    207    219    241    264    284
146.600    279    262    232    199    183    174    171    169    157    146
146.800    159    180    201    217    215    204    189    179    194    222
147.000    260    286    234    164    164    189    197    201    217    232
147.200    225    213    216    224    219    209    202    192    160    137
147.400    198    271    244    195    239    303    275    225    245    281
147.600    254    205    169    149    177    226    280    318    261    182
147.800    176    196    191    184    214    251    251    238    228    218
148.000    198    182    205    234    221    190    156    131    161    205
148.200    212    203    189    175    168    169    197    222    187    138
148.400    144    169    177    181    193    208    217    218    194    163
148.600    150    152    194    240    223    186    177    183    211    237
148.800    216    184    189    204    192    174    178    185    165    145
149.000    172    210    213    199    173    152    176    211    211    193
149.200    157    121    125    140    133    121    129    144    149    154
149.400    171    196    236    264    205    125    113    128    137    141
149.600    136    129    126    121    104     91    121    161    160    142
149.800    129    128    180    234    188    120    142    191    195    182
150.000    174    168    164    163    175    187    167    143    156    180
150.200    182    178    181    182    158    135    170    222    244    247
150.400    215    176    169    175    186    193    178    153    122    100
150.600    139    192    189    167    170    177    159    140    166    202
150.800    200    181    158    139    144    154    147    139    163    194
151.000    198    192    183    174    175    175    155    131    130    135
151.200    122    108    126    152    159    159    156    155    172    192
151.400    187    178    196    214    185    148    166    198    187    166
151.600    178    200    204    200    199    193    156    115    122    145
151.800    153    155    159    158    134    106    113    131    142    156
152.000    195    231    199    143    110     94    113    143    151    153
152.200    160    167    156    140    139    144    157    173    184    189
152.400    171    144    124    110    121    135    122    108    143    183
152.600    156    114    132    164    146    120    152    197    187    163
152.800    174    200    224    242    227    200    176    156    144    140
153.000    151    174    224    265    211    132    118    127    124    120
153.200    133    149    148    143    152    167    188    207    196    178
153.400    177    184    197    207    184    155    161    178    180    175
153.600    167    152    113     77    100    139    143    131    112     92
153.800     80     78    103    130    112     87    119    168    193    201
154.000    164    118    114    127    148    163    132     94    116    152
154.200    143    126    166    211    171    111    126    164    174    173
154.400    177    182    182    178    169    158    152    146    132    120
154.600    141    168    162    144    134    126    105     85     95    113
154.800    111    105    124    148    155    153    138    121    119    126
155.000    151    172    137     90     99    131    163    185    157    120
155.200    135    163    153    125     92     68    102    145    113     58
155.400     40     41     65    100    142    173    139     92    113    150
155.600    131     96     97    114    131    143    127    101     83     74
155.800     88    111    129    142    140    132    121    111    113    116
156.000    104     87     78     78    106    135    108     66     67     85
156.200    101    119    146    165    134     96    128    171    129     67
156.400     73    100     92     79    109    150    155    149    166    184
156.600    160    124    107     97     88     80     71     64     73     92
156.800    123    150    134    109    132    165    155    133    139    154
157.000    154    148    142    135    121    106     91     86    123    160
157.200    117     52     45     60     69     79    114    150    144    122
157.400    100     86    112    148    156    154    162    171    165    153
157.600    139    126    116    111    121    136    141    137    100     65
157.800    108    168    156    123    125    135    110     74     48     33
158.000     55     88    106    112     88     60     74     96     78     55
158.200     90    131     84     17     26     64     92    108     81     48
158.400     73    115    127    129    136    146    154    159    148    132
158.600    131    134    130    124    116    114    142    167    117     49
158.800     36     45     47     53     86    119     99     73    128    194
159.000    147     69     61     75     61     46     86    139    148    140
159.200    132    133    178    224    193    135     97     71     63     65
159.400     77     96    125    156    170    171    137     94     75     68
159.600     81     99    107    111    115    119    125    127    114    102
159.800    133    169    144    105    126    162    160    148    171    201
160.000    199    187    185    182    152    120    128    144    117     77
160.200     60     57     76     99     97     91    118    151    144    122
160.400    100     82     81     85     82     81    103    132    141    140
160.600    121    102    119    141    113     75     87    111     90     60
160.800     67     86     93     95     97    102    119    135    124    103
161.000     87     80    106    138    125    100     97     99     86     69
161.200     69     74     77     78     72     68     79     93     89     79
161.400     82     94    126    156    136    105    118    139    118     83
161.600     65     58     79    110    135    149    124     96    128    170
161.800    142    105    160    227    167     71     47     53     72     90
#.EOFm.                                                                      .
