#.DATE. 2018-06-23 13:23:50                                                  .
#.GTkV. 25                                                                   .
#.GCmA. 40                                                                   .
#.WLa1. 2.2907                                                              .
#.ANFG. 143                                                                  .
#.ENDE. 167                                                                  .
#.STEP. 0.02                                                                 .
#.t/St. 2                                                                 .
#.nScn. 4                                                             .
#.MaxI. 21683                                                .
#.    .                                                                      .
#.iScn. 1                                                .
#.STPi. 0.02                                                .
#.PSIi. 0                                                .
#.FETA. -1                                                                   .
143.000  21545  21683  21564  21256  20516  19815  20169  20821  20850  20698
143.200  20886  21168  21243  21241  21268  21246  20927  20562  20562  20642
143.400  20394  20072  20040  20079  19893  19556  18912  18288  18371  18681
143.600  18711  18619  18477  18264  17801  17274  16934  16603  15947  15312
143.800  15435  15789  15785  15613  15324  15003  14754  14571  14575  14606
144.000  14407  14043  13319  12671  13123  13762  13139  12189  12129  12336
144.200  12097  11753  11784  11891  11633  11290  11252  11339  11439  11466
144.400  11100  10677  10757  10927  10534  10008   9942  10012   9842   9616
144.600   9595   9596   9304   8892   8470   8125   8185   8319   8014   7599
144.800   7509   7537   7502   7400   7088   6771   6847   7016   6860   6601
145.000   6475   6408   6363   6268   5881   5440   5311   5279   5107   4916
145.200   4910   4931   4715   4439   4333   4271   4091   3890   3824   3781
145.400   3583   3352   3266   3243   3243   3231   3109   2962   2907   2885
145.600   2843   2781   2664   2542   2508   2497   2419   2314   2204   2097
145.800   2012   1954   1989   2044   2013   1964   2003   2043   1910   1731
146.000   1668   1647   1601   1542   1465   1388   1344   1332   1407   1502
146.200   1525   1503   1398   1286   1304   1351   1286   1198   1218   1267
146.400   1238   1180   1135   1098   1076   1066   1085   1101   1047    973
146.600    940    919    868    818    826    854    859    859    882    907
146.800    892    868    871    874    827    773    789    832    873    902
147.000    875    840    880    927    859    760    739    752    782    810
147.200    796    765    729    705    753    819    838    833    798    759
147.400    752    758    765    773    780    780    755    723    711    703
147.600    677    654    691    736    706    658    673    702    673    629
147.800    627    643    674    696    648    589    613    654    612    549
148.000    554    598    702    797    727    611    592    604    579    552
148.200    589    637    616    573    550    542    561    583    565    543
148.400    581    629    612    566    508    457    461    489    525    562
148.600    579    585    568    540    507    477    479    493    507    521
148.800    538    559    597    622    550    452    416    416    479    547
149.000    515    453    441    455    498    541    529    500    501    509
149.200    497    482    492    516    558    601    607    595    562    526
149.400    520    517    469    415    421    454    505    553    548    522
149.600    497    471    432    398    417    453    468    475    490    498
149.800    454    406    433    478    458    424    452    499    524    537
150.000    535    519    458    393    393    420    449    475    484    481
150.200    451    415    396    395    449    507    473    412    394    402
150.400    447    496    488    461    446    435    420    408    411    419
150.600    417    416    442    473    479    474    466    451    416    384
150.800    414    460    466    456    451    453    485    520    512    486
151.000    463    448    468    493    470    430    403    384    378    380
151.200    391    404    413    424    449    469    439    399    409    443
151.400    497    540    489    414    404    416    405    382    346    308
151.600    290    289    336    404    484    552    543    506    484    467
151.800    440    416    420    433    431    420    394    363    334    306
152.000    281    277    370    477    462    401    352    319    344    384
152.200    383    364    340    319    328    344    343    340    362    395
152.400    430    461    469    457    396    329    326    352    401    444
152.600    414    362    350    355    367    383    414    440    419    381
152.800    353    341    384    440    448    432    398    361    352    353
153.000    349    350    386    423    397    344    288    235    207    205
153.200    283    377    391    373    356    342    337    337    350    362
153.400    342    326    387    458    422    352    322    317    355    399
153.600    378    342    354    382    387    383    381    380    384    387
153.800    380    366    340    313    303    300    302    301    275    249
154.000    275    316    335    339    310    271    252    244    259    282
154.200    297    309    319    325    309    291    303    324    327    322
154.400    315    309    308    307    289    269    268    274    285    298
154.600    316    334    340    338    318    294    290    303    364    423
154.800    376    299    288    307    338    365    350    325    332    343
155.000    307    271    322    395    406    388    348    304    279    263
155.200    258    258    258    259    265    274    287    296    280    257
155.400    249    242    210    179    208    259    303    341    359    361
155.600    323    280    289    311    293    267    282    305    280    246
155.800    260    287    279    252    198    151    186    239    219    182
156.000    210    260    295    312    274    224    222    242    274    301
156.200    286    254    221    196    217    246    217    172    165    171
156.400    167    159    150    141    138    146    189    240    254    259
156.600    288    320    325    316    292    264    246    231    209    197
156.800    245    310    339    343    300    240    192    159    184    228
157.000    252    265    262    248    219    190    194    212    232    250
157.200    256    256    243    229    236    247    230    207    207    208
157.400    161    115    174    252    223    169    205    268    283    276
157.600    257    233    208    194    245    305    287    238    194    158
157.800    152    158    165    176    201    228    241    248    245    239
158.000    233    228    225    223    221    226    266    306    276    225
158.200    209    210    227    246    240    229    243    258    228    188
158.400    187    200    211    222    238    250    230    197    159    126
158.600    123    138    180    225    237    233    219    200    177    164
158.800    205    256    252    225    198    180    210    243    191    116
159.000     98    106    136    170    187    192    174    156    191    240
159.200    249    244    244    246    246    243    225    209    228    252
159.400    223    184    200    227    202    168    192    233    239    229
159.600    206    186    204    233    234    223    210    190    140     90
159.800    100    128    126    121    158    206    227    234    224    212
160.000    217    229    239    243    219    188    180    183    191    207
160.200    251    289    237    168    191    238    223    193    210    241
160.400    249    249    262    270    230    182    192    222    230    228
160.600    213    199    213    235    235    227    219    210    191    167
160.800    135    108    129    170    213    249    248    236    244    260
161.000    275    284    269    248    241    233    200    158    124    105
161.200    141    187    173    144    158    188    205    215    218    217
161.400    206    190    164    137    123    123    160    202    196    173
161.600    168    172    188    204    200    186    164    138    117    102
161.800    110    135    197    256    232    181    165    162    155    147
162.000    136    131    164    205    206    199    224    250    217    170
162.200    168    185    204    214    176    125    112    115    123    137
162.400    173    209    203    189    212    237    202    151    145    155
162.600    157    155    153    158    198    244    255    246    215    180
162.800    165    160    160    166    194    222    208    181    167    167
163.000    202    236    190    127    137    173    189    195    191    187
163.200    202    217    202    175    156    149    186    229    222    200
163.400    208    222    204    172    128     92    111    149    169    176
163.600    161    143    155    179    200    220    243    256    213    155
163.800    137    135    134    134    133    136    169    205    201    185
164.000    189    193    160    118    105    112    169    231    225    190
164.200    155    128    144    182    237    284    261    217    215    222
164.400    199    165    143    126    117    114    128    151    191    223
164.600    188    138    146    173    174    165    162    160    145    131
164.800    150    172    144    108    129    167    177    174    169    165
165.000    169    174    163    146    134    122    100     79     83    100
165.200    132    164    171    166    158    147    131    118    130    153
165.400    186    212    191    153    125    109    133    167    168    156
165.600    144    133    127    129    163    202    211    204    182    156
165.800    143    139    152    167    155    135    127    122    114    104
166.000     99     96     98    102    108    114    120    125    130    133
166.200    134    135    138    133     85     34     63    114    118    110
166.400    132    160    155    133     94     57     67     93    109    117
166.600    107     97    128    166    153    128    153    187    171    137
166.800    115    105    136    176    173    155    145    138    123    104
#.iScn. 2                                                .
#.STPi. 0.02                                                .
#.PSIi. 24                                                .
#.FETA. -1                                                                   .
143.000    269    277    243    203    215    245    268    281    258    231
143.200    260    302    291    268    290    320    300    260    223    195
143.400    207    228    213    192    219    263    294    305    242    162
143.600    142    146    147    156    210    265    237    183    172    182
143.800    214    244    226    194    193    201    189    171    158    159
144.000    213    279    295    292    289    282    248    218    255    309
144.200    311    287    233    177    171    182    178    168    160    159
144.400    191    235    269    291    275    243    214    191    188    197
144.600    223    243    203    155    187    240    238    215    195    184
144.800    208    239    232    210    191    181    211    245    221    183
145.000    195    214    171    116    125    156    173    188    215    245
145.200    267    267    182     86    112    179    211    224    217    205
145.400    215    231    237    233    204    170    168    180    202    223
145.600    220    214    238    267    261    239    204    175    203    244
145.800    241    226    233    248    261    270    259    243    234    231
146.000    244    255    216    162    128    111    139    183    214    238
146.200    252    256    235    206    192    189    211    236    224    203
146.400    207    215    190    158    159    171    173    179    225    274
146.600    255    217    220    238    246    247    228    204    187    175
146.800    178    183    171    157    161    177    213    251    259    253
147.000    237    221    222    224    194    165    199    245    221    177
147.200    168    177    201    227    230    226    233    239    210    176
147.400    180    197    196    192    211    232    213    181    159    149
147.600    176    215    244    265    273    266    219    170    199    252
147.800    270    270    247    224    246    273    233    179    182    206
148.000    220    224    203    170    134    101     98    115    175    238
148.200    224    188    191    209    232    249    229    197    177    161
148.400    145    133    139    157    195    232    222    197    182    181
148.600    223    274    277    258    222    186    180    187    197    210
148.800    225    238    238    236    259    282    258    217    178    155
149.000    212    288    304    288    235    184    218    270    242    195
149.200    208    233    191    132    117    125    163    213    264    308
149.400    307    286    252    215    193    180    184    189    169    148
149.600    173    210    211    199    202    210    220    229    238    239
149.800    208    168    148    145    187    234    213    177    204    252
150.000    275    285    272    250    231    217    223    236    241    242
150.200    241    233    197    161    187    228    224    201    173    152
150.400    181    223    237    236    223    209    217    234    254    279
150.600    317    344    281    198    190    212    231    243    225    203
150.800    224    253    235    203    186    179    187    200    210    224
151.000    268    309    277    227    240    270    258    238    257    284
151.200    277    262    267    276    258    238    253    274    248    212
151.400    213    230    254    274    269    249    211    175    189    213
151.600    190    158    178    214    233    242    233    214    178    148
151.800    175    218    231    231    233    231    212    190    185    185
152.000    175    166    185    202    151     86     89    124    184    242
152.200    240    217    211    211    214    218    219    219    221    217
152.400    186    144     99     70    126    205    234    242    252    261
152.600    270    280    302    318    284    231    186    152    158    177
152.800    181    183    203    226    221    208    212    224    246    261
153.000    221    172    189    233    276    305    272    224    224    240
153.200    233    219    218    222    225    226    225    224    228    234
153.400    238    239    224    204    195    196    221    249    247    239
153.600    261    288    285    263    213    164    185    220    192    159
153.800    231    327    334    307    280    252    212    180    208    251
154.000    244    224    231    248    265    275    257    230    218    211
154.200    199    190    206    227    228    219    203    187    183    187
154.400    214    242    230    201    166    138    165    203    193    170
154.600    182    206    223    235    234    225    201    177    183    199
154.800    205    203    186    165    157    158    174    198    229    253
155.000    228    192    196    216    233    244    233    214    197    180
155.200    160    141    140    146    152    164    208    255    260    248
155.400    236    229    242    263    277    282    249    205    181    166
155.600    154    140    108     84    138    206    186    142    158    193
155.800    203    199    177    151    148    157    181    202    180    149
156.000    161    180    146    103    125    167    182    191    224    260
156.200    267    261    245    222    184    145    130    130    161    199
156.400    207    204    203    204    212    215    184    151    173    216
156.600    254    283    272    243    201    158    143    140    137    137
156.800    147    160    170    171    139    101    108    135    175    215
157.000    222    217    222    224    196    163    167    184    201    212
157.200    198    180    192    221    275    321    280    211    177    161
157.400    162    172    190    205    185    157    159    164    124     82
157.600    122    183    192    184    193    210    235    254    228    194
157.800    205    222    176    110     77     65     90    130    173    209
158.000    202    183    191    208    225    232    194    146    136    146
158.200    176    206    194    167    142    127    160    204    203    193
158.400    225    263    251    219    189    162    155    158    174    196
158.600    216    229    202    163    141    134    172    215    195    159
158.800    173    201    204    192    163    137    161    197    188    163
159.000    145    136    165    202    203    188    171    162    200    241
159.200    205    153    169    212    245    265    235    196    210    243
159.400    261    267    238    212    264    334    329    296    265    233
159.600    196    162    160    164    143    121    149    188    185    177
159.800    226    282    258    212    219    236    198    149    154    172
160.000    155    132    157    203    254    297    282    247    232    219
160.200    181    144    160    196    220    229    183    131    154    202
160.400    218    221    219    214    201    187    186    192    203    212
160.600    196    175    177    184    161    136    154    183    174    150
160.800    126    113    155    200    152     84    106    154    153    139
161.000    155    179    180    174    176    176    148    114    113    127
161.200    151    176    185    188    196    203    200    192    182    179
161.400    209    240    205    148    117    101    105    116    121    120
161.600    109     96     96    105    126    146    139    124    122    129
161.800    148    175    220    256    212    145    120    114    120    126
162.000    115    107    146    188    150     92     95    120    125    122
162.200    111    100    107    122    139    153    152    145    141    144
162.400    169    193    168    126     93     72    101    143    155    155
162.600    158    161    158    156    179    202    180    152    187    240
162.800    255    251    225    195    185    183    183    184    190    197
163.000    197    191    163    137    160    190    161    119    124    143
163.200    135    122    132    147    134    115    123    135    120    102
163.400    121    154    182    200    178    146    145    158    171    181
163.600    171    154    139    129    144    163    160    149    142    137
163.800    140    144    136    128    137    150    151    151    166    182
164.000    170    154    180    211    187    152    175    219    251    266
164.200    213    146    147    169    156    131    111    102    140    182
164.400    154    113    147    200    201    177    132     84     69     67
164.600     67     69     83    101    119    132    125    109     91     80
164.800    106    134    100     54     68     99     92     75     84    100
165.000     91     76     78     87    101    118    138    152    126     91
165.200     88    102    139    178    180    168    155    144    149    160
165.400    163    163    166    163    120     78    114    171    172    154
165.600    157    166    157    143    137    134    128    120    114    103
165.800     68     38     78    130    102     60    108    174    147     95
166.000    106    144    191    221    151     57     48     70     85     93
166.200     80     62     65     85    140    191    149     82     80    104
166.400    128    145    130    105     92     90    120    154    149    127
166.600     95     67     76     94     80     62     82    114    126    132
166.800    147    157    132    100    108    125    110     93    130    176
#.iScn. 3                                                .
#.STPi. 0.02                                                .
#.PSIi. 35                                                .
#.FETA. -1                                                                   .
143.000    248    223    223    227    201    176    214    267    267    246
143.200    233    222    201    180    171    179    247    322    313    273
143.400    243    225    247    275    250    212    216    229    212    188
143.600    192    201    172    139    164    208    230    249    292    335
143.800    334    315    288    255    207    165    186    226    235    223
144.000    172    119    126    159    195    228    233    231    249    264
144.200    227    186    230    290    257    201    213    247    248    233
144.400    206    176    158    146    144    147    153    164    190    219
144.600    233    236    212    190    228    275    242    195    233    292
144.800    283    255    270    295    282    255    234    214    183    153
145.000    158    180    220    258    246    216    196    186    206    237
145.200    263    281    267    240    208    177    161    156    171    190
145.400    184    171    175    180    162    135    114    108    157    217
145.600    219    199    189    189    219    252    240    216    224    241
145.800    244    241    228    214    208    203    182    164    201    247
146.000    236    208    207    213    197    184    224    276    278    260
146.200    239    214    177    147    176    223    250    261    237    206
146.400    210    218    176    137    211    311    308    263    218    178
146.600    170    170    153    134    138    152    163    179    228    273
146.800    232    168    165    186    197    209    238    272    299    314
147.000    286    248    250    255    195    131    180    255    235    188
147.200    191    217    251    281    270    246    243    246    233    213
147.400    194    185    218    256    237    202    201    211    211    208
147.600    210    211    202    198    246    303    306    286    256    230
147.800    239    251    200    136    135    160    187    215    244    264
148.000    229    188    220    274    285    280    280    278    254    225
148.200    209    203    214    230    239    244    244    238    209    181
148.400    205    238    217    176    140    113    116    134    160    182
148.600    164    141    172    222    267    290    220    129    128    164
148.800    210    249    231    199    205    226    239    245    234    222
149.000    237    264    298    326    317    292    262    240    268    307
149.200    299    276    265    259    251    245    249    256    260    259
149.400    243    226    236    244    193    134    145    188    244    295
149.600    286    260    261    264    222    168    147    144    164    190
149.800    193    187    184    183    184    191    221    257    270    267
150.000    234    202    242    292    252    191    210    252    254    250
150.200    299    346    278    184    187    212    155     83    100    149
150.400    188    219    237    248    254    252    225    190    173    172
150.600    215    260    233    188    200    231    249    256    239    218
150.800    217    228    252    273    246    200    156    126    167    229
151.000    248    245    217    180    151    137    180    238    256    257
151.200    251    245    247    249    226    196    173    159    180    207
151.400    202    184    163    153    205    268    269    251    263    279
151.600    255    221    215    220    219    211    183    154    163    191
151.800    237    282    281    259    230    203    199    203    194    185
152.000    204    225    200    161    147    149    181    219    230    228
152.200    216    208    238    273    248    211    227    257    247    221
152.400    192    167    169    183    212    242    252    251    233    210
152.600    190    172    151    139    180    234    247    241    228    218
152.800    240    261    219    158    135    126    109     97    126    171
153.000    211    241    226    203    227    257    227    182    182    203
153.200    237    269    258    228    188    162    231    316    294    234
153.400    191    160    159    171    195    217    214    202    200    199
153.600    183    165    167    182    224    266    261    239    229    226
153.800    236    247    231    206    186    175    194    219    206    183
154.000    185    194    191    185    191    198    192    183    194    209
154.200    211    204    187    167    159    158    177    200    208    207
154.400    189    174    202    239    228    202    199    205    206    207
154.600    210    213    211    208    210    212    209    205    209    215
154.800    211    205    207    213    219    220    193    165    187    225
155.000    241    243    213    179    184    197    176    146    135    135
155.200    158    181    161    131    144    174    199    215    188    155
155.400    180    218    204    177    185    209    238    263    253    235
155.600    247    267    269    255    204    152    167    212    272    319
155.800    274    206    207    228    214    187    168    155    155    161
156.000    167    175    192    210    221    225    211    195    211    233
156.200    228    209    177    142    120    111    137    172    184    185
156.400    179    174    182    198    224    248    239    214    176    136
156.600    119    116    138    170    204    230    219    199    206    221
156.800    221    218    228    240    230    220    245    274    250    204
157.000    156    127    191    274    259    215    221    241    231    217
157.200    245    279    268    237    204    183    224    270    218    144
157.400    165    211    197    164    159    166    177    184    169    153
157.600    174    205    211    206    199    194    201    211    214    215
157.800    223    229    213    195    205    230    269    300    269    225
158.000    238    268    269    256    223    193    213    236    176    100
158.200    112    158    196    226    238    238    221    204    219    241
158.400    234    219    218    218    201    179    164    159    189    224
158.600    219    203    220    241    214    177    187    210    208    190
158.800    143    100    129    177    177    156    130    110    133    167
159.000    171    165    171    185    219    252    240    215    218    225
159.200    197    163    169    187    185    176    167    164    183    210
159.400    233    242    186    115     99    105    110    118    146    183
159.600    225    258    236    191    144    117    193    288    267    209
159.800    202    215    223    233    258    279    247    196    162    141
160.000    158    185    184    173    172    171    153    137    161    193
160.200    185    165    162    169    191    212    199    177    174    169
160.400    122     75    111    179    236    272    231    168    150    145
160.600    112     83    129    190    181    149    149    160    171    178
160.800    172    159    144    137    173    217    211    188    180    184
161.000    218    250    211    151    134    132    120    114    155    202
161.200    185    147    129    132    200    279    278    248    228    210
161.400    184    154    127    109    130    168    217    258    234    193
161.600    197    213    194    162    130    104    105    123    172    224
161.800    225    206    195    188    183    172    126     77     88    116
162.000    112    103    127    153    114     65     88    131    132    117
162.200    109    110    144    183    177    158    164    174    152    123
162.400    119    127    144    160    161    156    154    153    149    144
162.600    146    149    152    155    166    179    182    180    165    146
162.800    132    125    148    174    162    135    114    104    131    167
163.000    175    171    172    169    144    115    111    124    171    221
163.200    222    204    183    163    153    147    139    133    134    142
163.400    171    205    219    222    207    183    151    117     98     90
163.600    110    143    178    204    181    147    153    167    136     98
163.800    112    143    161    168    155    133    113    101    132    171
164.000    167    146    130    123    153    185    160    125    153    197
164.200    186    165    197    245    263    264    237    203    189    180
164.400    156    130    122    126    148    178    205    227    229    215
164.600    163    101     72     59     59     67     82    103    137    169
164.800    158    132    121    117    126    137    133    128    148    167
165.000    131     90    134    199    196    166    134    108    114    133
165.200    155    174    170    154    130    107    109    119    119    117
165.400    128    142    148    152    164    177    175    164    138    109
165.600     93     86     93    103    106    107    113    117     98     79
165.800    106    148    170    181    177    169    171    169    127     83
166.000    104    140    116     73     52     48     84    125    111     79
166.200     67     69    106    150    164    165    161    151    119     86
166.400     85     95     98     97     88     80     95    114    110    100
166.600    112    129    132    132    139    144    126    101     94     99
166.800    127    156    140    116    142    178    161    126    106     93
#.iScn. 4                                                .
#.STPi. 0.02                                                .
#.PSIi. 45                                                .
#.FETA. -1                                                                   .
143.000    231    249    257    262    270    270    220    161    157    176
143.200    200    227    256    273    226    174    221    290    279    241
143.400    235    239    233    227    242    260    243    212    176    142
143.600    125    128    199    280    276    242    230    229    243    258
143.800    248    229    215    203    193    184    180    183    211    236
144.000    199    148    154    179    192    196    179    160    179    211
144.200    233    248    246    237    218    198    186    183    205    235
144.400    250    256    239    219    230    248    235    211    202    200
144.600    210    216    182    143    159    193    212    219    203    178
144.800    161    157    200    250    243    220    232    259    289    310
145.000    276    228    220    229    240    251    259    261    246    224
145.200    204    188    194    204    197    188    201    220    227    232
145.400    252    274    276    270    261    250    237    229    253    281
145.600    269    246    250    261    257    249    254    258    230    202
145.800    234    275    240    180    150    142    187    237    205    156
146.000    182    228    219    201    241    296    303    292    289    288
146.200    282    273    259    242    217    190    168    155    180    225
146.400    290    343    293    217    224    254    231    188    153    129
146.600    144    173    200    220    207    188    205    234    245    248
146.800    248    248    259    266    223    177    211    263    247    210
147.000    208    219    223    222    208    196    227    257    196    114
147.200    113    146    181    216    248    274    280    275    260    247
147.400    272    301    272    226    212    215    243    272    257    230
147.600    223    225    225    232    274    314    269    200    174    172
147.800    200    235    245    240    210    182    213    254    230    189
148.000    194    220    256    286    263    225    217    219    214    208
148.200    209    211    206    199    194    193    209    229    239    242
148.400    233    224    237    251    226    192    185    189    195    205
148.600    238    273    275    263    249    234    211    188    181    184
148.800    197    223    289    345    273    169    167    204    237    261
149.000    245    219    220    227    207    187    214    252    251    235
149.200    218    205    222    245    245    236    235    238    243    241
149.400    202    160    175    211    240    266    290    305    272    226
149.600    212    214    241    265    231    185    199    236    268    292
149.800    289    271    235    201    219    252    260    259    266    272
150.000    256    232    203    183    210    249    254    243    214    185
150.200    191    207    203    196    217    244    246    235    206    176
150.400    176    193    233    274    270    248    223    197    171    153
150.600    175    210    233    246    234    215    209    213    232    255
150.800    263    263    251    238    235    238    244    255    278    298
151.000    276    244    240    243    218    189    195    211    209    197
151.200    178    160    164    178    204    224    194    152    150    165
151.400    190    213    209    191    153    119    145    189    203    206
151.600    216    225    219    207    197    189    194    203    207    212
151.800    230    248    233    206    187    182    227    277    247    193
152.000    177    179    186    198    217    235    236    228    208    189
152.200    192    202    205    204    197    191    206    231    258    275
152.400    240    195    200    220    210    196    222    257    257    246
152.600    250    256    244    228    230    237    227    209    180    156
152.800    183    227    250    256    227    197    240    296    267    215
153.000    213    229    235    234    220    201    190    179    148    123
153.200    163    218    218    201    211    228    230    226    225    228
153.400    241    254    244    229    242    259    238    204    178    167
153.600    208    260    262    241    206    177    198    232    223    205
153.800    230    261    234    190    179    179    169    159    169    189
154.000    221    251    249    234    214    192    172    157    165    181
154.200    184    184    197    208    186    157    165    180    161    140
154.400    174    220    215    196    215    243    243    231    222    216
154.600    219    221    208    187    164    144    143    150    167    190
154.800    228    261    241    211    241    284    272    240    221    210
155.000    216    226    226    222    216    207    183    159    165    180
155.200    177    171    186    210    234    257    275    286    271    251
155.400    264    283    269    243    230    224    225    229    236    237
155.600    203    163    158    159    117     75    121    189    185    158
155.800    153    158    170    182    184    180    169    157    153    157
156.000    178    198    181    153    140    139    163    195    217    228
156.200    206    179    199    230    229    216    205    198    211    225
156.400    212    199    236    277    235    172    177    208    229    245
156.600    251    249    225    196    182    178    189    203    199    190
156.800    194    200    184    166    178    194    169    139    172    220
157.000    218    198    185    178    187    199    188    170    164    167
157.200    195    221    190    142    124    123    144    172    190    201
157.400    198    192    195    198    186    174    192    215    203    183
157.600    193    214    231    240    211    174    172    183    192    196
157.800    177    157    177    209    221    223    215    211    245    290
158.000    308    304    235    154    140    155    185    208    166    109
158.200    107    128    154    179    192    203    226    247    231    207
158.400    215    234    246    253    245    230    210    193    203    219
158.600    215    212    256    301    261    203    226    270    251    214
158.800    214    228    242    250    229    206    225    249    216    165
159.000    139    126    127    140    193    248    236    203    193    193
159.200    192    193    214    238    242    232    192    146    130    132
159.400    162    202    230    247    229    198    167    141    133    141
159.600    186    228    183    119    130    164    155    137    159    194
159.800    214    222    205    183    189    204    202    195    190    187
160.000    187    185    160    137    169    208    175    123    123    138
160.200    128    113    121    142    180    215    208    181    139    106
160.400    143    201    216    209    178    145    147    164    186    201
160.600    171    138    177    231    218    188    203    234    247    246
160.800    215    177    167    170    175    176    157    139    169    210
161.000    204    186    193    207    201    190    196    206    206    201
161.200    191    179    169    162    173    196    242    282    237    171
161.400    165    182    192    197    184    162    130     99     95    106
161.600    147    192    200    194    186    175    149    122    117    125
161.800    153    183    186    175    146    120    144    180    178    160
162.000    147    141    165    194    191    175    156    143    168    201
162.200    198    179    160    140    122    112    143    185    194    192
162.400    203    212    181    142    138    144    132    115    116    121
162.600    111    103    135    179    203    212    183    141    112     95
162.800    108    134    160    178    156    126    134    156    168    175
163.000    174    165    134    104    124    159    166    159    135    109
163.200    105    105     83     62     84    120    136    144    147    147
163.400    135    119    103     93    110    139    173    201    189    163
163.600    145    140    182    231    225    196    165    136    117    108
163.800    121    143    166    185    174    157    163    178    183    184
164.000    180    178    193    209    200    177    137    100    106    129
164.200    146    157    154    148    149    157    188    222    226    215
164.400    186    150    112     83     96    120    119    108    102    100
164.600    108    114     93     71     99    143    167    177    154    125
164.800    133    154    173    184    158    126    129    141    125    103
165.000    113    138    181    221    211    184    172    161    122     87
165.200    132    191    163    111    106    119    130    140    148    148
165.400    107     62     85    128    136    131    129    126    105     80
165.600     72     74     97    130    165    188    148     88     63     56
165.800     74     98    105    113    158    202    169    112     87     86
166.000    140    204    210    191    167    145    144    150    143    130
166.200    115     98     76     58     70     92    101    103     97     92
166.400    117    145    133    110    114    124    119    110    116    124
166.600    112     94     88     84     71     67    120    183    181    149
166.800    100     53     48     60     74     88    102    111     96     79
#.EOFm.                                                                      .
